Filename	CLSOx100_4
Instrument name	5500-0018 (192.168.1.3)
Operator	mp933
rundate	10/25/2022
Sample name	CLSOx100_4
proceduresegments	Select Gas: Gas 2 ; Mass Flow  25.00 mL/min; Ramp 10.00 °C/min to 110.00 °C; Isothermal 30.0 min; Ramp 100.00 °C/min to 950.00 °C; Isothermal 10.0 min; Data Off ; Equilibrate 40.00 °C
[step]
Ramp 10.00 °C/min to 110.00 °C
Time	Temperature	Weight	Weight
min	°C	%	mg
0.003	22.48	96.5027	5.1427
0.012	22.48	95.1673	5.0715
0.020	22.48	95.1084	5.0684
0.028	22.48	95.1239	5.0692
0.037	22.48	95.1000	5.0680
0.045	22.48	95.1344	5.0698
0.053	22.48	95.1398	5.0701
0.062	22.48	95.1259	5.0693
0.070	22.48	95.1395	5.0701
0.078	22.48	95.1330	5.0697
0.087	22.48	95.1217	5.0691
0.095	22.48	95.1327	5.0697
0.103	22.48	95.1270	5.0694
0.112	22.48	95.1270	5.0694
0.120	22.48	95.1446	5.0703
0.128	22.48	95.1470	5.0705
0.137	22.48	95.1479	5.0705
0.145	22.48	95.1762	5.0720
0.153	22.48	95.1656	5.0715
0.162	22.48	95.1631	5.0713
0.170	22.48	95.1712	5.0718
0.178	22.48	95.1699	5.0717
0.187	22.48	95.1673	5.0715
0.195	22.48	95.1675	5.0716
0.203	22.48	95.1642	5.0714
0.212	22.48	95.1634	5.0713
0.220	22.48	95.1641	5.0714
0.228	22.48	95.1658	5.0715
0.237	22.48	95.1645	5.0714
0.245	22.48	95.1626	5.0713
0.253	22.48	95.1609	5.0712
0.262	22.49	95.1584	5.0711
0.270	22.49	95.1564	5.0710
0.278	22.49	95.1545	5.0709
0.287	22.49	95.1529	5.0708
0.295	22.49	95.1515	5.0707
0.303	22.49	95.1505	5.0707
0.312	22.50	95.1491	5.0706
0.320	22.50	95.1480	5.0705
0.328	22.50	95.1472	5.0705
0.337	22.51	95.1462	5.0704
0.345	22.51	95.1454	5.0704
0.353	22.52	95.1450	5.0704
0.362	22.53	95.1443	5.0703
0.370	22.54	95.1435	5.0703
0.378	22.55	95.1433	5.0703
0.387	22.56	95.1427	5.0702
0.395	22.58	95.1419	5.0702
0.403	22.60	95.1416	5.0702
0.412	22.62	95.1413	5.0702
0.420	22.64	95.1407	5.0701
0.428	22.67	95.1402	5.0701
0.437	22.69	95.1398	5.0701
0.445	22.73	95.1392	5.0701
0.453	22.76	95.1386	5.0700
0.462	22.79	95.1384	5.0700
0.470	22.83	95.1379	5.0700
0.478	22.87	95.1373	5.0700
0.487	22.92	95.1368	5.0699
0.495	22.96	95.1360	5.0699
0.503	23.01	95.1352	5.0698
0.512	23.06	95.1345	5.0698
0.520	23.12	95.1336	5.0698
0.528	23.17	95.1325	5.0697
0.537	23.23	95.1316	5.0696
0.545	23.29	95.1303	5.0696
0.553	23.36	95.1290	5.0695
0.562	23.42	95.1278	5.0694
0.570	23.49	95.1264	5.0694
0.578	23.56	95.1248	5.0693
0.587	23.63	95.1235	5.0692
0.595	23.70	95.1221	5.0691
0.603	23.77	95.1203	5.0690
0.612	23.84	95.1188	5.0690
0.620	23.92	95.1175	5.0689
0.628	23.99	95.1157	5.0688
0.637	24.07	95.1139	5.0687
0.645	24.14	95.1122	5.0686
0.653	24.22	95.1104	5.0685
0.662	24.30	95.1083	5.0684
0.670	24.38	95.1066	5.0683
0.678	24.46	95.1047	5.0682
0.687	24.54	95.1024	5.0681
0.695	24.62	95.1002	5.0680
0.703	24.70	95.0979	5.0679
0.712	24.78	95.0959	5.0677
0.720	24.86	95.0937	5.0676
0.728	24.94	95.0914	5.0675
0.737	25.02	95.0890	5.0674
0.745	25.10	95.0868	5.0673
0.753	25.19	95.0846	5.0671
0.762	25.27	95.0822	5.0670
0.770	25.35	95.0800	5.0669
0.778	25.43	95.0776	5.0668
0.787	25.51	95.0751	5.0666
0.795	25.59	95.0728	5.0665
0.803	25.68	95.0706	5.0664
0.812	25.76	95.0679	5.0663
0.820	25.84	95.0655	5.0661
0.828	25.92	95.0634	5.0660
0.837	26.00	95.0611	5.0659
0.845	26.09	95.0584	5.0657
0.853	26.17	95.0558	5.0656
0.862	26.25	95.0532	5.0655
0.870	26.33	95.0504	5.0653
0.878	26.42	95.0476	5.0652
0.887	26.50	95.0449	5.0650
0.895	26.58	95.0420	5.0649
0.903	26.66	95.0392	5.0647
0.912	26.75	95.0366	5.0646
0.920	26.83	95.0340	5.0644
0.928	26.91	95.0313	5.0643
0.937	26.99	95.0286	5.0642
0.945	27.08	95.0259	5.0640
0.953	27.16	95.0232	5.0639
0.962	27.24	95.0205	5.0637
0.970	27.33	95.0177	5.0636
0.978	27.41	95.0150	5.0634
0.987	27.49	95.0123	5.0633
0.995	27.58	95.0094	5.0631
1.003	27.66	95.0066	5.0630
1.012	27.75	95.0039	5.0628
1.020	27.83	95.0010	5.0627
1.028	27.91	94.9981	5.0625
1.037	28.00	94.9954	5.0624
1.045	28.08	94.9926	5.0622
1.053	28.17	94.9898	5.0621
1.062	28.25	94.9868	5.0619
1.070	28.34	94.9840	5.0618
1.078	28.42	94.9811	5.0616
1.087	28.51	94.9784	5.0615
1.095	28.59	94.9755	5.0613
1.103	28.68	94.9726	5.0612
1.112	28.76	94.9697	5.0610
1.120	28.85	94.9669	5.0609
1.128	28.93	94.9640	5.0607
1.137	29.02	94.9611	5.0606
1.145	29.10	94.9581	5.0604
1.153	29.19	94.9550	5.0602
1.162	29.28	94.9520	5.0601
1.170	29.36	94.9491	5.0599
1.178	29.45	94.9461	5.0598
1.187	29.53	94.9430	5.0596
1.195	29.62	94.9400	5.0594
1.203	29.70	94.9367	5.0593
1.212	29.79	94.9333	5.0591
1.220	29.88	94.9301	5.0589
1.228	29.96	94.9269	5.0587
1.237	30.05	94.9237	5.0586
1.245	30.14	94.9206	5.0584
1.253	30.22	94.9174	5.0582
1.262	30.31	94.9143	5.0581
1.270	30.39	94.9113	5.0579
1.278	30.48	94.9083	5.0577
1.287	30.57	94.9053	5.0576
1.295	30.65	94.9021	5.0574
1.303	30.74	94.8988	5.0572
1.312	30.82	94.8956	5.0571
1.320	30.91	94.8923	5.0569
1.328	30.99	94.8890	5.0567
1.337	31.08	94.8858	5.0565
1.345	31.17	94.8826	5.0564
1.353	31.25	94.8792	5.0562
1.362	31.34	94.8759	5.0560
1.370	31.42	94.8726	5.0558
1.378	31.51	94.8694	5.0557
1.387	31.60	94.8662	5.0555
1.395	31.68	94.8628	5.0553
1.403	31.77	94.8593	5.0551
1.412	31.85	94.8562	5.0550
1.420	31.94	94.8529	5.0548
1.428	32.02	94.8495	5.0546
1.437	32.11	94.8462	5.0544
1.445	32.20	94.8428	5.0543
1.453	32.28	94.8394	5.0541
1.462	32.37	94.8361	5.0539
1.470	32.45	94.8328	5.0537
1.478	32.54	94.8293	5.0535
1.487	32.62	94.8259	5.0534
1.495	32.71	94.8225	5.0532
1.503	32.79	94.8189	5.0530
1.512	32.88	94.8155	5.0528
1.520	32.97	94.8119	5.0526
1.528	33.05	94.8086	5.0524
1.537	33.14	94.8054	5.0523
1.545	33.22	94.8019	5.0521
1.553	33.31	94.7981	5.0519
1.562	33.39	94.7945	5.0517
1.570	33.48	94.7909	5.0515
1.578	33.56	94.7875	5.0513
1.587	33.65	94.7841	5.0511
1.595	33.74	94.7806	5.0509
1.603	33.82	94.7772	5.0508
1.612	33.91	94.7736	5.0506
1.620	33.99	94.7702	5.0504
1.628	34.08	94.7667	5.0502
1.637	34.16	94.7631	5.0500
1.645	34.25	94.7595	5.0498
1.653	34.33	94.7559	5.0496
1.662	34.42	94.7523	5.0494
1.670	34.50	94.7487	5.0492
1.678	34.59	94.7452	5.0491
1.687	34.68	94.7418	5.0489
1.695	34.76	94.7381	5.0487
1.703	34.85	94.7345	5.0485
1.712	34.93	94.7310	5.0483
1.720	35.02	94.7274	5.0481
1.728	35.10	94.7238	5.0479
1.737	35.19	94.7203	5.0477
1.745	35.27	94.7169	5.0475
1.753	35.36	94.7131	5.0473
1.762	35.44	94.7093	5.0471
1.770	35.53	94.7057	5.0470
1.778	35.61	94.7021	5.0468
1.787	35.70	94.6985	5.0466
1.795	35.78	94.6949	5.0464
1.803	35.87	94.6913	5.0462
1.812	35.95	94.6875	5.0460
1.820	36.04	94.6839	5.0458
1.828	36.13	94.6802	5.0456
1.837	36.21	94.6765	5.0454
1.845	36.30	94.6730	5.0452
1.853	36.38	94.6692	5.0450
1.862	36.47	94.6656	5.0448
1.870	36.55	94.6618	5.0446
1.878	36.64	94.6582	5.0444
1.887	36.72	94.6546	5.0442
1.895	36.81	94.6508	5.0440
1.903	36.89	94.6470	5.0438
1.912	36.98	94.6434	5.0436
1.920	37.06	94.6397	5.0434
1.928	37.15	94.6361	5.0432
1.937	37.23	94.6326	5.0431
1.945	37.32	94.6289	5.0429
1.953	37.40	94.6250	5.0426
1.962	37.49	94.6213	5.0425
1.970	37.57	94.6176	5.0423
1.978	37.66	94.6138	5.0420
1.987	37.74	94.6100	5.0418
1.995	37.83	94.6062	5.0416
2.003	37.91	94.6027	5.0415
2.012	38.00	94.5989	5.0413
2.020	38.08	94.5949	5.0410
2.028	38.17	94.5911	5.0408
2.037	38.25	94.5874	5.0406
2.045	38.34	94.5836	5.0404
2.053	38.42	94.5799	5.0402
2.062	38.51	94.5762	5.0400
2.070	38.59	94.5725	5.0399
2.078	38.68	94.5686	5.0396
2.087	38.76	94.5647	5.0394
2.095	38.84	94.5609	5.0392
2.103	38.93	94.5570	5.0390
2.112	39.01	94.5532	5.0388
2.120	39.10	94.5495	5.0386
2.128	39.18	94.5456	5.0384
2.137	39.27	94.5417	5.0382
2.145	39.35	94.5378	5.0380
2.153	39.44	94.5340	5.0378
2.162	39.52	94.5303	5.0376
2.170	39.61	94.5266	5.0374
2.178	39.69	94.5229	5.0372
2.187	39.78	94.5190	5.0370
2.195	39.86	94.5152	5.0368
2.203	39.94	94.5114	5.0366
2.212	40.03	94.5076	5.0364
2.220	40.11	94.5038	5.0362
2.228	40.20	94.4998	5.0360
2.237	40.28	94.4959	5.0358
2.245	40.37	94.4921	5.0356
2.253	40.45	94.4882	5.0354
2.262	40.54	94.4844	5.0352
2.270	40.62	94.4806	5.0350
2.278	40.71	94.4768	5.0348
2.287	40.79	94.4730	5.0346
2.295	40.88	94.4694	5.0344
2.303	40.96	94.4656	5.0342
2.312	41.05	94.4619	5.0340
2.320	41.13	94.4581	5.0338
2.328	41.22	94.4545	5.0336
2.337	41.30	94.4506	5.0334
2.345	41.39	94.4468	5.0332
2.353	41.47	94.4431	5.0330
2.362	41.56	94.4394	5.0328
2.370	41.64	94.4357	5.0326
2.378	41.72	94.4320	5.0324
2.387	41.81	94.4283	5.0322
2.395	41.89	94.4248	5.0320
2.403	41.98	94.4214	5.0318
2.412	42.06	94.4179	5.0316
2.420	42.15	94.4142	5.0314
2.428	42.23	94.4105	5.0312
2.437	42.32	94.4069	5.0310
2.445	42.40	94.4032	5.0308
2.453	42.49	94.3996	5.0306
2.462	42.57	94.3959	5.0304
2.470	42.66	94.3922	5.0302
2.478	42.74	94.3882	5.0300
2.487	42.83	94.3844	5.0298
2.495	42.91	94.3809	5.0296
2.503	43.00	94.3772	5.0294
2.512	43.08	94.3734	5.0292
2.520	43.16	94.3696	5.0290
2.528	43.25	94.3658	5.0288
2.537	43.33	94.3621	5.0286
2.545	43.42	94.3586	5.0285
2.553	43.50	94.3549	5.0283
2.562	43.59	94.3510	5.0280
2.570	43.67	94.3473	5.0278
2.578	43.76	94.3435	5.0276
2.587	43.84	94.3397	5.0274
2.595	43.92	94.3358	5.0272
2.603	44.01	94.3319	5.0270
2.612	44.09	94.3281	5.0268
2.620	44.18	94.3243	5.0266
2.628	44.26	94.3203	5.0264
2.637	44.35	94.3164	5.0262
2.645	44.43	94.3128	5.0260
2.653	44.51	94.3091	5.0258
2.662	44.60	94.3053	5.0256
2.670	44.68	94.3014	5.0254
2.678	44.77	94.2975	5.0252
2.687	44.85	94.2936	5.0250
2.695	44.94	94.2898	5.0248
2.703	45.02	94.2859	5.0246
2.712	45.10	94.2819	5.0244
2.720	45.19	94.2780	5.0242
2.728	45.27	94.2742	5.0240
2.737	45.36	94.2705	5.0238
2.745	45.44	94.2667	5.0236
2.753	45.53	94.2628	5.0233
2.762	45.61	94.2587	5.0231
2.770	45.69	94.2548	5.0229
2.778	45.78	94.2509	5.0227
2.787	45.86	94.2470	5.0225
2.795	45.95	94.2430	5.0223
2.803	46.03	94.2391	5.0221
2.812	46.12	94.2354	5.0219
2.820	46.20	94.2316	5.0217
2.828	46.28	94.2277	5.0215
2.837	46.37	94.2240	5.0213
2.845	46.45	94.2202	5.0211
2.853	46.54	94.2164	5.0209
2.862	46.62	94.2125	5.0207
2.870	46.71	94.2087	5.0205
2.878	46.79	94.2050	5.0203
2.887	46.87	94.2011	5.0201
2.895	46.96	94.1973	5.0199
2.903	47.04	94.1936	5.0197
2.912	47.13	94.1899	5.0195
2.920	47.21	94.1862	5.0193
2.928	47.30	94.1827	5.0191
2.937	47.38	94.1789	5.0189
2.945	47.46	94.1751	5.0187
2.953	47.55	94.1713	5.0185
2.962	47.63	94.1676	5.0183
2.970	47.72	94.1638	5.0181
2.978	47.80	94.1601	5.0179
2.987	47.88	94.1565	5.0177
2.995	47.97	94.1528	5.0175
3.003	48.05	94.1493	5.0173
3.012	48.14	94.1456	5.0171
3.020	48.22	94.1418	5.0169
3.028	48.31	94.1381	5.0167
3.037	48.39	94.1345	5.0165
3.045	48.47	94.1309	5.0163
3.053	48.56	94.1271	5.0161
3.062	48.64	94.1234	5.0159
3.070	48.73	94.1198	5.0157
3.078	48.81	94.1162	5.0155
3.087	48.89	94.1127	5.0153
3.095	48.98	94.1091	5.0152
3.103	49.06	94.1053	5.0150
3.112	49.15	94.1016	5.0148
3.120	49.23	94.0980	5.0146
3.128	49.31	94.0944	5.0144
3.137	49.40	94.0908	5.0142
3.145	49.48	94.0870	5.0140
3.153	49.57	94.0833	5.0138
3.162	49.65	94.0799	5.0136
3.170	49.73	94.0762	5.0134
3.178	49.82	94.0724	5.0132
3.187	49.90	94.0687	5.0130
3.195	49.99	94.0651	5.0128
3.203	50.07	94.0617	5.0126
3.212	50.15	94.0580	5.0124
3.220	50.24	94.0545	5.0122
3.228	50.32	94.0509	5.0121
3.237	50.41	94.0474	5.0119
3.245	50.49	94.0438	5.0117
3.253	50.57	94.0403	5.0115
3.262	50.66	94.0370	5.0113
3.270	50.74	94.0337	5.0111
3.278	50.82	94.0302	5.0110
3.287	50.91	94.0267	5.0108
3.295	50.99	94.0232	5.0106
3.303	51.08	94.0197	5.0104
3.312	51.16	94.0162	5.0102
3.320	51.24	94.0131	5.0100
3.328	51.33	94.0095	5.0098
3.337	51.41	94.0058	5.0097
3.345	51.49	94.0023	5.0095
3.353	51.58	93.9988	5.0093
3.362	51.66	93.9953	5.0091
3.370	51.74	93.9918	5.0089
3.378	51.83	93.9884	5.0087
3.387	51.91	93.9848	5.0085
3.395	51.99	93.9813	5.0083
3.403	52.08	93.9780	5.0082
3.412	52.16	93.9745	5.0080
3.420	52.24	93.9710	5.0078
3.428	52.33	93.9675	5.0076
3.437	52.41	93.9641	5.0074
3.445	52.49	93.9607	5.0072
3.453	52.58	93.9574	5.0071
3.462	52.66	93.9538	5.0069
3.470	52.74	93.9503	5.0067
3.478	52.83	93.9470	5.0065
3.487	52.91	93.9439	5.0064
3.495	52.99	93.9408	5.0062
3.503	53.08	93.9375	5.0060
3.512	53.16	93.9342	5.0058
3.520	53.25	93.9308	5.0057
3.528	53.33	93.9275	5.0055
3.537	53.41	93.9243	5.0053
3.545	53.50	93.9209	5.0051
3.553	53.58	93.9175	5.0049
3.562	53.66	93.9140	5.0048
3.570	53.75	93.9105	5.0046
3.578	53.83	93.9070	5.0044
3.587	53.92	93.9036	5.0042
3.595	54.00	93.9002	5.0040
3.603	54.08	93.8970	5.0039
3.612	54.17	93.8936	5.0037
3.620	54.25	93.8903	5.0035
3.628	54.34	93.8870	5.0033
3.637	54.42	93.8838	5.0032
3.645	54.50	93.8805	5.0030
3.653	54.59	93.8771	5.0028
3.662	54.67	93.8738	5.0026
3.670	54.75	93.8705	5.0024
3.678	54.84	93.8675	5.0023
3.687	54.92	93.8643	5.0021
3.695	55.01	93.8610	5.0019
3.703	55.09	93.8577	5.0018
3.712	55.17	93.8544	5.0016
3.720	55.26	93.8511	5.0014
3.728	55.34	93.8479	5.0012
3.737	55.42	93.8447	5.0011
3.745	55.51	93.8415	5.0009
3.753	55.59	93.8382	5.0007
3.762	55.67	93.8350	5.0005
3.770	55.76	93.8318	5.0004
3.778	55.84	93.8286	5.0002
3.787	55.93	93.8255	5.0000
3.795	56.01	93.8223	4.9999
3.803	56.09	93.8192	4.9997
3.812	56.18	93.8160	4.9995
3.820	56.26	93.8128	4.9994
3.828	56.34	93.8096	4.9992
3.837	56.43	93.8066	4.9990
3.845	56.51	93.8034	4.9989
3.853	56.59	93.8002	4.9987
3.862	56.68	93.7970	4.9985
3.870	56.76	93.7940	4.9984
3.878	56.84	93.7908	4.9982
3.887	56.93	93.7874	4.9980
3.895	57.01	93.7842	4.9978
3.903	57.10	93.7812	4.9977
3.912	57.18	93.7782	4.9975
3.920	57.26	93.7749	4.9973
3.928	57.35	93.7718	4.9972
3.937	57.43	93.7687	4.9970
3.945	57.51	93.7655	4.9968
3.953	57.60	93.7624	4.9967
3.962	57.68	93.7591	4.9965
3.970	57.76	93.7560	4.9963
3.978	57.85	93.7529	4.9962
3.987	57.93	93.7498	4.9960
3.995	58.01	93.7467	4.9958
4.003	58.10	93.7435	4.9957
4.012	58.18	93.7405	4.9955
4.020	58.27	93.7374	4.9953
4.028	58.35	93.7343	4.9952
4.037	58.43	93.7312	4.9950
4.045	58.52	93.7282	4.9949
4.053	58.60	93.7251	4.9947
4.062	58.68	93.7221	4.9945
4.070	58.77	93.7190	4.9944
4.078	58.85	93.7160	4.9942
4.087	58.93	93.7130	4.9940
4.095	59.02	93.7100	4.9939
4.103	59.10	93.7069	4.9937
4.112	59.18	93.7039	4.9936
4.120	59.27	93.7010	4.9934
4.128	59.35	93.6981	4.9933
4.137	59.43	93.6952	4.9931
4.145	59.52	93.6923	4.9929
4.153	59.60	93.6894	4.9928
4.162	59.68	93.6865	4.9926
4.170	59.76	93.6836	4.9925
4.178	59.85	93.6806	4.9923
4.187	59.93	93.6776	4.9922
4.195	60.01	93.6748	4.9920
4.203	60.10	93.6719	4.9919
4.212	60.18	93.6690	4.9917
4.220	60.26	93.6660	4.9915
4.228	60.35	93.6632	4.9914
4.237	60.43	93.6604	4.9912
4.245	60.51	93.6576	4.9911
4.253	60.60	93.6547	4.9909
4.262	60.68	93.6519	4.9908
4.270	60.76	93.6490	4.9906
4.278	60.85	93.6460	4.9905
4.287	60.93	93.6431	4.9903
4.295	61.02	93.6404	4.9902
4.303	61.10	93.6376	4.9900
4.312	61.18	93.6347	4.9899
4.320	61.27	93.6318	4.9897
4.328	61.35	93.6290	4.9896
4.337	61.43	93.6261	4.9894
4.345	61.52	93.6234	4.9893
4.353	61.60	93.6205	4.9891
4.362	61.68	93.6176	4.9890
4.370	61.77	93.6147	4.9888
4.378	61.85	93.6120	4.9887
4.387	61.94	93.6092	4.9885
4.395	62.02	93.6064	4.9884
4.403	62.10	93.6038	4.9882
4.412	62.19	93.6010	4.9881
4.420	62.27	93.5982	4.9879
4.428	62.35	93.5954	4.9878
4.437	62.44	93.5925	4.9876
4.445	62.52	93.5898	4.9875
4.453	62.60	93.5871	4.9873
4.462	62.69	93.5844	4.9872
4.470	62.77	93.5816	4.9870
4.478	62.86	93.5788	4.9869
4.487	62.94	93.5760	4.9867
4.495	63.02	93.5732	4.9866
4.503	63.11	93.5704	4.9865
4.512	63.19	93.5676	4.9863
4.520	63.27	93.5649	4.9862
4.528	63.36	93.5621	4.9860
4.537	63.44	93.5595	4.9859
4.545	63.52	93.5569	4.9857
4.553	63.61	93.5543	4.9856
4.562	63.69	93.5515	4.9854
4.570	63.78	93.5488	4.9853
4.578	63.86	93.5461	4.9852
4.587	63.94	93.5433	4.9850
4.595	64.03	93.5406	4.9849
4.603	64.11	93.5378	4.9847
4.612	64.19	93.5352	4.9846
4.620	64.28	93.5329	4.9845
4.628	64.36	93.5305	4.9843
4.637	64.44	93.5278	4.9842
4.645	64.53	93.5251	4.9840
4.653	64.61	93.5223	4.9839
4.662	64.69	93.5196	4.9837
4.670	64.78	93.5168	4.9836
4.678	64.86	93.5141	4.9834
4.687	64.94	93.5113	4.9833
4.695	65.03	93.5085	4.9831
4.703	65.11	93.5056	4.9830
4.712	65.19	93.5030	4.9829
4.720	65.27	93.5003	4.9827
4.728	65.36	93.4978	4.9826
4.737	65.44	93.4952	4.9824
4.745	65.52	93.4926	4.9823
4.753	65.61	93.4900	4.9822
4.762	65.69	93.4874	4.9820
4.770	65.77	93.4849	4.9819
4.778	65.86	93.4824	4.9818
4.787	65.94	93.4798	4.9816
4.795	66.02	93.4774	4.9815
4.803	66.11	93.4749	4.9814
4.812	66.19	93.4724	4.9812
4.820	66.27	93.4699	4.9811
4.828	66.36	93.4674	4.9810
4.837	66.44	93.4648	4.9808
4.845	66.52	93.4622	4.9807
4.853	66.61	93.4595	4.9805
4.862	66.69	93.4571	4.9804
4.870	66.77	93.4546	4.9803
4.878	66.86	93.4519	4.9801
4.887	66.94	93.4494	4.9800
4.895	67.02	93.4471	4.9799
4.903	67.11	93.4446	4.9797
4.912	67.19	93.4419	4.9796
4.920	67.27	93.4394	4.9795
4.928	67.36	93.4368	4.9793
4.937	67.44	93.4345	4.9792
4.945	67.52	93.4321	4.9791
4.953	67.61	93.4298	4.9790
4.962	67.69	93.4273	4.9788
4.970	67.78	93.4249	4.9787
4.978	67.86	93.4224	4.9786
4.987	67.94	93.4201	4.9784
4.995	68.03	93.4177	4.9783
5.003	68.11	93.4152	4.9782
5.012	68.19	93.4129	4.9781
5.020	68.28	93.4106	4.9779
5.028	68.36	93.4082	4.9778
5.037	68.44	93.4057	4.9777
5.045	68.53	93.4032	4.9775
5.053	68.61	93.4010	4.9774
5.062	68.69	93.3987	4.9773
5.070	68.77	93.3962	4.9772
5.078	68.86	93.3938	4.9770
5.087	68.94	93.3915	4.9769
5.095	69.02	93.3892	4.9768
5.103	69.11	93.3868	4.9767
5.112	69.19	93.3845	4.9765
5.120	69.27	93.3823	4.9764
5.128	69.36	93.3799	4.9763
5.137	69.44	93.3775	4.9762
5.145	69.52	93.3751	4.9760
5.153	69.61	93.3727	4.9759
5.162	69.69	93.3703	4.9758
5.170	69.77	93.3680	4.9757
5.178	69.86	93.3657	4.9755
5.187	69.94	93.3635	4.9754
5.195	70.02	93.3613	4.9753
5.203	70.11	93.3589	4.9752
5.212	70.19	93.3567	4.9751
5.220	70.27	93.3544	4.9749
5.228	70.36	93.3521	4.9748
5.237	70.44	93.3499	4.9747
5.245	70.52	93.3477	4.9746
5.253	70.61	93.3454	4.9745
5.262	70.69	93.3431	4.9743
5.270	70.78	93.3407	4.9742
5.278	70.86	93.3384	4.9741
5.287	70.94	93.3363	4.9740
5.295	71.03	93.3341	4.9739
5.303	71.11	93.3323	4.9738
5.312	71.19	93.3304	4.9737
5.320	71.28	93.3284	4.9736
5.328	71.36	93.3262	4.9734
5.337	71.44	93.3240	4.9733
5.345	71.53	93.3218	4.9732
5.353	71.61	93.3197	4.9731
5.362	71.70	93.3174	4.9730
5.370	71.78	93.3153	4.9729
5.378	71.86	93.3131	4.9727
5.387	71.95	93.3109	4.9726
5.395	72.03	93.3087	4.9725
5.403	72.11	93.3065	4.9724
5.412	72.20	93.3044	4.9723
5.420	72.28	93.3022	4.9722
5.428	72.36	93.3001	4.9720
5.437	72.45	93.2980	4.9719
5.445	72.53	93.2958	4.9718
5.453	72.61	93.2937	4.9717
5.462	72.70	93.2917	4.9716
5.470	72.78	93.2896	4.9715
5.478	72.86	93.2875	4.9714
5.487	72.95	93.2854	4.9713
5.495	73.03	93.2833	4.9712
5.503	73.11	93.2813	4.9710
5.512	73.20	93.2793	4.9709
5.520	73.28	93.2774	4.9708
5.528	73.36	93.2755	4.9707
5.537	73.45	93.2734	4.9706
5.545	73.53	93.2713	4.9705
5.553	73.61	93.2693	4.9704
5.562	73.69	93.2672	4.9703
5.570	73.78	93.2652	4.9702
5.578	73.86	93.2632	4.9701
5.587	73.94	93.2613	4.9700
5.595	74.03	93.2594	4.9699
5.603	74.11	93.2574	4.9698
5.612	74.19	93.2554	4.9697
5.620	74.28	93.2535	4.9696
5.628	74.36	93.2516	4.9695
5.637	74.44	93.2497	4.9694
5.645	74.53	93.2478	4.9693
5.653	74.61	93.2457	4.9691
5.662	74.69	93.2438	4.9690
5.670	74.77	93.2418	4.9689
5.678	74.86	93.2398	4.9688
5.687	74.94	93.2381	4.9687
5.695	75.02	93.2363	4.9686
5.703	75.11	93.2341	4.9685
5.712	75.19	93.2320	4.9684
5.720	75.27	93.2300	4.9683
5.728	75.36	93.2280	4.9682
5.737	75.44	93.2259	4.9681
5.745	75.52	93.2241	4.9680
5.753	75.61	93.2222	4.9679
5.762	75.69	93.2203	4.9678
5.770	75.77	93.2184	4.9677
5.778	75.86	93.2165	4.9676
5.787	75.94	93.2146	4.9675
5.795	76.02	93.2128	4.9674
5.803	76.11	93.2109	4.9673
5.812	76.19	93.2090	4.9672
5.820	76.27	93.2073	4.9671
5.828	76.36	93.2055	4.9670
5.837	76.44	93.2036	4.9669
5.845	76.52	93.2015	4.9668
5.853	76.61	93.1992	4.9667
5.862	76.69	93.1971	4.9666
5.870	76.77	93.1950	4.9664
5.878	76.86	93.1932	4.9663
5.887	76.94	93.1912	4.9662
5.895	77.02	93.1892	4.9661
5.903	77.11	93.1873	4.9660
5.912	77.19	93.1855	4.9659
5.920	77.27	93.1837	4.9658
5.928	77.36	93.1818	4.9657
5.937	77.44	93.1801	4.9656
5.945	77.52	93.1783	4.9656
5.953	77.61	93.1766	4.9655
5.962	77.69	93.1748	4.9654
5.970	77.77	93.1731	4.9653
5.978	77.86	93.1714	4.9652
5.987	77.94	93.1696	4.9651
5.995	78.03	93.1678	4.9650
6.003	78.11	93.1660	4.9649
6.012	78.19	93.1642	4.9648
6.020	78.28	93.1626	4.9647
6.028	78.36	93.1609	4.9646
6.037	78.44	93.1591	4.9645
6.045	78.53	93.1575	4.9644
6.053	78.61	93.1560	4.9644
6.062	78.69	93.1543	4.9643
6.070	78.78	93.1526	4.9642
6.078	78.86	93.1510	4.9641
6.087	78.94	93.1495	4.9640
6.095	79.03	93.1478	4.9639
6.103	79.11	93.1461	4.9638
6.112	79.20	93.1443	4.9637
6.120	79.28	93.1428	4.9637
6.128	79.36	93.1412	4.9636
6.137	79.45	93.1396	4.9635
6.145	79.53	93.1380	4.9634
6.153	79.61	93.1362	4.9633
6.162	79.70	93.1343	4.9632
6.170	79.78	93.1328	4.9631
6.178	79.86	93.1314	4.9631
6.187	79.95	93.1298	4.9630
6.195	80.03	93.1280	4.9629
6.203	80.11	93.1262	4.9628
6.212	80.19	93.1246	4.9627
6.220	80.28	93.1230	4.9626
6.228	80.36	93.1213	4.9625
6.237	80.44	93.1197	4.9624
6.245	80.53	93.1182	4.9623
6.253	80.61	93.1166	4.9623
6.262	80.69	93.1151	4.9622
6.270	80.78	93.1135	4.9621
6.278	80.86	93.1118	4.9620
6.287	80.94	93.1103	4.9619
6.295	81.03	93.1087	4.9618
6.303	81.11	93.1071	4.9618
6.312	81.19	93.1057	4.9617
6.320	81.28	93.1042	4.9616
6.328	81.36	93.1025	4.9615
6.337	81.44	93.1012	4.9614
6.345	81.53	93.0998	4.9614
6.353	81.61	93.0982	4.9613
6.362	81.69	93.0968	4.9612
6.370	81.78	93.0954	4.9611
6.378	81.86	93.0939	4.9611
6.387	81.94	93.0922	4.9610
6.395	82.03	93.0906	4.9609
6.403	82.11	93.0891	4.9608
6.412	82.19	93.0877	4.9607
6.420	82.28	93.0862	4.9606
6.428	82.36	93.0848	4.9606
6.437	82.44	93.0834	4.9605
6.445	82.52	93.0820	4.9604
6.453	82.61	93.0805	4.9603
6.462	82.69	93.0790	4.9603
6.470	82.77	93.0774	4.9602
6.478	82.86	93.0759	4.9601
6.487	82.94	93.0744	4.9600
6.495	83.02	93.0730	4.9599
6.503	83.11	93.0716	4.9599
6.512	83.19	93.0701	4.9598
6.520	83.27	93.0687	4.9597
6.528	83.36	93.0674	4.9596
6.537	83.44	93.0660	4.9596
6.545	83.52	93.0646	4.9595
6.553	83.61	93.0631	4.9594
6.562	83.69	93.0617	4.9593
6.570	83.77	93.0604	4.9593
6.578	83.86	93.0590	4.9592
6.587	83.94	93.0576	4.9591
6.595	84.02	93.0563	4.9591
6.603	84.11	93.0550	4.9590
6.612	84.19	93.0537	4.9589
6.620	84.27	93.0524	4.9588
6.628	84.36	93.0512	4.9588
6.637	84.44	93.0498	4.9587
6.645	84.52	93.0485	4.9586
6.653	84.61	93.0471	4.9586
6.662	84.69	93.0458	4.9585
6.670	84.77	93.0446	4.9584
6.678	84.86	93.0431	4.9584
6.687	84.94	93.0418	4.9583
6.695	85.02	93.0405	4.9582
6.703	85.11	93.0394	4.9581
6.712	85.19	93.0380	4.9581
6.720	85.27	93.0366	4.9580
6.728	85.36	93.0354	4.9579
6.737	85.44	93.0343	4.9579
6.745	85.52	93.0332	4.9578
6.753	85.60	93.0319	4.9578
6.762	85.69	93.0305	4.9577
6.770	85.77	93.0292	4.9576
6.778	85.85	93.0279	4.9575
6.787	85.94	93.0265	4.9575
6.795	86.02	93.0251	4.9574
6.803	86.10	93.0237	4.9573
6.812	86.19	93.0225	4.9572
6.820	86.27	93.0213	4.9572
6.828	86.35	93.0201	4.9571
6.837	86.44	93.0187	4.9570
6.845	86.52	93.0175	4.9570
6.853	86.60	93.0165	4.9569
6.862	86.69	93.0152	4.9569
6.870	86.77	93.0141	4.9568
6.878	86.85	93.0129	4.9567
6.887	86.94	93.0117	4.9567
6.895	87.02	93.0104	4.9566
6.903	87.10	93.0093	4.9565
6.912	87.19	93.0081	4.9565
6.920	87.27	93.0069	4.9564
6.928	87.35	93.0058	4.9564
6.937	87.44	93.0046	4.9563
6.945	87.52	93.0036	4.9562
6.953	87.60	93.0026	4.9562
6.962	87.69	93.0014	4.9561
6.970	87.77	93.0000	4.9561
6.978	87.85	92.9988	4.9560
6.987	87.94	92.9976	4.9559
6.995	88.02	92.9964	4.9559
7.003	88.10	92.9952	4.9558
7.012	88.19	92.9940	4.9557
7.020	88.27	92.9930	4.9557
7.028	88.35	92.9920	4.9556
7.037	88.43	92.9909	4.9556
7.045	88.52	92.9893	4.9555
7.053	88.60	92.9879	4.9554
7.062	88.68	92.9867	4.9553
7.070	88.77	92.9859	4.9553
7.078	88.85	92.9850	4.9553
7.087	88.93	92.9841	4.9552
7.095	89.02	92.9834	4.9552
7.103	89.10	92.9828	4.9551
7.112	89.18	92.9815	4.9551
7.120	89.27	92.9803	4.9550
7.128	89.35	92.9791	4.9549
7.137	89.43	92.9780	4.9549
7.145	89.51	92.9769	4.9548
7.153	89.60	92.9757	4.9548
7.162	89.68	92.9744	4.9547
7.170	89.76	92.9736	4.9546
7.178	89.85	92.9727	4.9546
7.187	89.93	92.9719	4.9546
7.195	90.01	92.9711	4.9545
7.203	90.10	92.9700	4.9545
7.212	90.18	92.9689	4.9544
7.220	90.26	92.9677	4.9543
7.228	90.35	92.9665	4.9543
7.237	90.43	92.9653	4.9542
7.245	90.51	92.9643	4.9541
7.253	90.60	92.9635	4.9541
7.262	90.68	92.9626	4.9541
7.270	90.76	92.9614	4.9540
7.278	90.85	92.9602	4.9539
7.287	90.93	92.9589	4.9539
7.295	91.01	92.9578	4.9538
7.303	91.10	92.9568	4.9538
7.312	91.18	92.9562	4.9537
7.320	91.26	92.9553	4.9537
7.328	91.35	92.9541	4.9536
7.337	91.43	92.9531	4.9536
7.345	91.51	92.9521	4.9535
7.353	91.60	92.9509	4.9534
7.362	91.68	92.9498	4.9534
7.370	91.76	92.9489	4.9533
7.378	91.85	92.9479	4.9533
7.387	91.93	92.9470	4.9532
7.395	92.01	92.9461	4.9532
7.403	92.10	92.9451	4.9531
7.412	92.18	92.9441	4.9531
7.420	92.26	92.9432	4.9530
7.428	92.34	92.9423	4.9530
7.437	92.43	92.9414	4.9529
7.445	92.51	92.9406	4.9529
7.453	92.59	92.9398	4.9528
7.462	92.68	92.9389	4.9528
7.470	92.76	92.9380	4.9527
7.478	92.84	92.9374	4.9527
7.487	92.92	92.9366	4.9527
7.495	93.01	92.9357	4.9526
7.503	93.09	92.9347	4.9526
7.512	93.17	92.9335	4.9525
7.520	93.26	92.9324	4.9524
7.528	93.34	92.9313	4.9524
7.537	93.42	92.9304	4.9523
7.545	93.50	92.9293	4.9523
7.553	93.59	92.9287	4.9523
7.562	93.67	92.9280	4.9522
7.570	93.75	92.9269	4.9522
7.578	93.84	92.9258	4.9521
7.587	93.92	92.9248	4.9520
7.595	94.00	92.9240	4.9520
7.603	94.09	92.9233	4.9520
7.612	94.17	92.9224	4.9519
7.620	94.25	92.9214	4.9519
7.628	94.34	92.9204	4.9518
7.637	94.42	92.9195	4.9518
7.645	94.50	92.9186	4.9517
7.653	94.59	92.9177	4.9517
7.662	94.67	92.9169	4.9516
7.670	94.76	92.9161	4.9516
7.678	94.84	92.9151	4.9515
7.687	94.92	92.9142	4.9515
7.695	95.01	92.9134	4.9514
7.703	95.09	92.9129	4.9514
7.712	95.17	92.9123	4.9514
7.720	95.26	92.9115	4.9513
7.728	95.34	92.9104	4.9513
7.737	95.42	92.9095	4.9512
7.745	95.51	92.9086	4.9512
7.753	95.59	92.9077	4.9511
7.762	95.67	92.9068	4.9511
7.770	95.76	92.9060	4.9510
7.778	95.84	92.9052	4.9510
7.787	95.92	92.9045	4.9510
7.795	96.01	92.9038	4.9509
7.803	96.09	92.9029	4.9509
7.812	96.17	92.9021	4.9508
7.820	96.25	92.9013	4.9508
7.828	96.34	92.9005	4.9507
7.837	96.42	92.8996	4.9507
7.845	96.50	92.8987	4.9507
7.853	96.59	92.8981	4.9506
7.862	96.67	92.8974	4.9506
7.870	96.75	92.8965	4.9505
7.878	96.84	92.8958	4.9505
7.887	96.92	92.8950	4.9505
7.895	97.00	92.8944	4.9504
7.903	97.09	92.8937	4.9504
7.912	97.17	92.8930	4.9504
7.920	97.25	92.8922	4.9503
7.928	97.33	92.8913	4.9503
7.937	97.42	92.8906	4.9502
7.945	97.50	92.8899	4.9502
7.953	97.58	92.8892	4.9501
7.962	97.67	92.8884	4.9501
7.970	97.75	92.8877	4.9501
7.978	97.83	92.8870	4.9500
7.987	97.92	92.8864	4.9500
7.995	98.00	92.8858	4.9500
8.003	98.08	92.8853	4.9499
8.012	98.17	92.8847	4.9499
8.020	98.25	92.8841	4.9499
8.028	98.33	92.8834	4.9498
8.037	98.42	92.8825	4.9498
8.045	98.50	92.8815	4.9497
8.053	98.58	92.8806	4.9497
8.062	98.67	92.8799	4.9496
8.070	98.75	92.8793	4.9496
8.078	98.83	92.8785	4.9496
8.087	98.91	92.8778	4.9495
8.095	99.00	92.8771	4.9495
8.103	99.08	92.8763	4.9495
8.112	99.17	92.8757	4.9494
8.120	99.25	92.8752	4.9494
8.128	99.33	92.8747	4.9494
8.137	99.42	92.8740	4.9493
8.145	99.50	92.8733	4.9493
8.153	99.58	92.8728	4.9493
8.162	99.67	92.8722	4.9492
8.170	99.75	92.8715	4.9492
8.178	99.83	92.8711	4.9492
8.187	99.92	92.8703	4.9491
8.195	100.00	92.8694	4.9491
8.203	100.08	92.8686	4.9490
8.212	100.17	92.8677	4.9490
8.220	100.25	92.8669	4.9490
8.228	100.33	92.8662	4.9489
8.237	100.41	92.8655	4.9489
8.245	100.50	92.8648	4.9488
8.253	100.58	92.8642	4.9488
8.262	100.66	92.8635	4.9488
8.270	100.75	92.8629	4.9487
8.278	100.83	92.8623	4.9487
8.287	100.91	92.8618	4.9487
8.295	101.00	92.8611	4.9486
8.303	101.08	92.8604	4.9486
8.312	101.16	92.8597	4.9486
8.320	101.25	92.8591	4.9485
8.328	101.33	92.8586	4.9485
8.337	101.41	92.8579	4.9485
8.345	101.50	92.8573	4.9484
8.353	101.58	92.8570	4.9484
8.362	101.66	92.8565	4.9484
8.370	101.75	92.8559	4.9484
8.378	101.83	92.8553	4.9483
8.387	101.91	92.8547	4.9483
8.395	102.00	92.8542	4.9483
8.403	102.08	92.8536	4.9482
8.412	102.16	92.8531	4.9482
8.420	102.25	92.8525	4.9482
8.428	102.33	92.8518	4.9482
8.437	102.41	92.8513	4.9481
8.445	102.50	92.8510	4.9481
8.453	102.58	92.8505	4.9481
8.462	102.66	92.8500	4.9481
8.470	102.74	92.8495	4.9480
8.478	102.83	92.8491	4.9480
8.487	102.91	92.8485	4.9480
8.495	102.99	92.8480	4.9480
8.503	103.08	92.8475	4.9479
8.512	103.16	92.8468	4.9479
8.520	103.24	92.8462	4.9479
8.528	103.33	92.8457	4.9478
8.537	103.41	92.8453	4.9478
8.545	103.49	92.8448	4.9478
8.553	103.58	92.8445	4.9478
8.562	103.66	92.8443	4.9478
8.570	103.74	92.8437	4.9477
8.578	103.83	92.8428	4.9477
8.587	103.91	92.8421	4.9476
8.595	103.99	92.8418	4.9476
8.603	104.08	92.8415	4.9476
8.612	104.16	92.8408	4.9476
8.620	104.24	92.8402	4.9475
8.628	104.32	92.8398	4.9475
8.637	104.41	92.8395	4.9475
8.645	104.49	92.8391	4.9475
8.653	104.57	92.8384	4.9474
8.662	104.66	92.8378	4.9474
8.670	104.74	92.8373	4.9474
8.678	104.82	92.8368	4.9474
8.687	104.91	92.8362	4.9473
8.695	104.99	92.8358	4.9473
8.703	105.07	92.8353	4.9473
8.712	105.16	92.8349	4.9473
8.720	105.24	92.8344	4.9472
8.728	105.32	92.8340	4.9472
8.737	105.41	92.8335	4.9472
8.745	105.49	92.8331	4.9472
8.753	105.57	92.8326	4.9471
8.762	105.65	92.8321	4.9471
8.770	105.74	92.8316	4.9471

[step]
Isothermal 30.0 min
Time	Temperature	Weight	Weight
min	°C	%	mg
8.778	105.82	92.8311	4.9471
8.787	105.90	92.8306	4.9470
8.795	105.99	92.8301	4.9470
8.803	106.07	92.8296	4.9470
8.812	106.15	92.8292	4.9470
8.820	106.23	92.8289	4.9469
8.828	106.32	92.8285	4.9469
8.837	106.40	92.8281	4.9469
8.845	106.48	92.8276	4.9469
8.853	106.56	92.8270	4.9468
8.862	106.64	92.8265	4.9468
8.870	106.71	92.8257	4.9468
8.878	106.79	92.8250	4.9467
8.887	106.86	92.8245	4.9467
8.895	106.94	92.8240	4.9467
8.903	107.01	92.8234	4.9466
8.912	107.08	92.8227	4.9466
8.920	107.15	92.8220	4.9466
8.928	107.22	92.8213	4.9465
8.937	107.28	92.8206	4.9465
8.945	107.35	92.8199	4.9465
8.953	107.41	92.8193	4.9464
8.962	107.47	92.8188	4.9464
8.970	107.52	92.8181	4.9464
8.978	107.58	92.8174	4.9463
8.987	107.64	92.8167	4.9463
8.995	107.69	92.8160	4.9462
9.003	107.74	92.8153	4.9462
9.012	107.79	92.8146	4.9462
9.020	107.83	92.8142	4.9461
9.028	107.88	92.8136	4.9461
9.037	107.92	92.8129	4.9461
9.045	107.96	92.8122	4.9460
9.053	108.00	92.8115	4.9460
9.062	108.04	92.8110	4.9460
9.070	108.07	92.8106	4.9460
9.078	108.11	92.8102	4.9459
9.087	108.14	92.8097	4.9459
9.095	108.17	92.8090	4.9459
9.103	108.20	92.8086	4.9459
9.112	108.23	92.8082	4.9458
9.120	108.26	92.8077	4.9458
9.128	108.29	92.8074	4.9458
9.137	108.31	92.8069	4.9458
9.145	108.34	92.8065	4.9457
9.153	108.36	92.8061	4.9457
9.162	108.38	92.8058	4.9457
9.170	108.41	92.8055	4.9457
9.178	108.43	92.8054	4.9457
9.187	108.45	92.8050	4.9457
9.195	108.47	92.8044	4.9456
9.203	108.49	92.8040	4.9456
9.212	108.51	92.8037	4.9456
9.220	108.53	92.8033	4.9456
9.228	108.55	92.8031	4.9456
9.237	108.57	92.8029	4.9455
9.245	108.59	92.8026	4.9455
9.253	108.61	92.8023	4.9455
9.262	108.62	92.8021	4.9455
9.270	108.64	92.8022	4.9455
9.278	108.66	92.8018	4.9455
9.287	108.67	92.8014	4.9455
9.295	108.69	92.8010	4.9454
9.303	108.71	92.8007	4.9454
9.312	108.72	92.8005	4.9454
9.320	108.74	92.8003	4.9454
9.328	108.76	92.8003	4.9454
9.337	108.77	92.7999	4.9454
9.345	108.79	92.7995	4.9454
9.353	108.80	92.7994	4.9454
9.362	108.82	92.7994	4.9454
9.370	108.83	92.7992	4.9453
9.378	108.84	92.7990	4.9453
9.387	108.86	92.7989	4.9453
9.395	108.87	92.7985	4.9453
9.403	108.89	92.7983	4.9453
9.412	108.90	92.7981	4.9453
9.420	108.91	92.7979	4.9453
9.428	108.92	92.7977	4.9453
9.437	108.94	92.7975	4.9453
9.445	108.95	92.7974	4.9453
9.453	108.96	92.7972	4.9452
9.462	108.97	92.7969	4.9452
9.470	108.98	92.7968	4.9452
9.478	109.00	92.7967	4.9452
9.487	109.01	92.7965	4.9452
9.495	109.02	92.7963	4.9452
9.503	109.03	92.7963	4.9452
9.512	109.04	92.7963	4.9452
9.520	109.05	92.7961	4.9452
9.528	109.06	92.7959	4.9452
9.537	109.07	92.7958	4.9452
9.545	109.08	92.7956	4.9452
9.553	109.09	92.7954	4.9451
9.562	109.10	92.7953	4.9451
9.570	109.11	92.7950	4.9451
9.578	109.11	92.7950	4.9451
9.587	109.12	92.7948	4.9451
9.595	109.13	92.7946	4.9451
9.603	109.14	92.7945	4.9451
9.612	109.15	92.7943	4.9451
9.620	109.16	92.7943	4.9451
9.628	109.16	92.7941	4.9451
9.637	109.17	92.7938	4.9451
9.645	109.18	92.7937	4.9451
9.653	109.19	92.7935	4.9450
9.662	109.19	92.7935	4.9450
9.670	109.20	92.7933	4.9450
9.678	109.21	92.7932	4.9450
9.687	109.21	92.7932	4.9450
9.695	109.22	92.7929	4.9450
9.703	109.23	92.7926	4.9450
9.712	109.23	92.7924	4.9450
9.720	109.24	92.7923	4.9450
9.728	109.24	92.7923	4.9450
9.737	109.25	92.7921	4.9450
9.745	109.26	92.7918	4.9450
9.753	109.26	92.7917	4.9449
9.762	109.27	92.7915	4.9449
9.770	109.27	92.7913	4.9449
9.778	109.28	92.7913	4.9449
9.787	109.28	92.7911	4.9449
9.795	109.29	92.7910	4.9449
9.803	109.29	92.7907	4.9449
9.812	109.30	92.7905	4.9449
9.820	109.30	92.7904	4.9449
9.828	109.31	92.7905	4.9449
9.837	109.31	92.7903	4.9449
9.845	109.32	92.7901	4.9449
9.853	109.32	92.7900	4.9449
9.862	109.32	92.7900	4.9449
9.870	109.33	92.7899	4.9449
9.878	109.33	92.7899	4.9449
9.887	109.34	92.7897	4.9448
9.895	109.34	92.7894	4.9448
9.903	109.35	92.7892	4.9448
9.912	109.35	92.7890	4.9448
9.920	109.35	92.7889	4.9448
9.928	109.36	92.7887	4.9448
9.937	109.36	92.7885	4.9448
9.945	109.36	92.7884	4.9448
9.953	109.37	92.7884	4.9448
9.962	109.37	92.7882	4.9448
9.970	109.38	92.7880	4.9448
9.978	109.38	92.7878	4.9447
9.987	109.38	92.7877	4.9447
9.995	109.39	92.7875	4.9447
10.003	109.39	92.7874	4.9447
10.012	109.39	92.7873	4.9447
10.020	109.39	92.7873	4.9447
10.028	109.40	92.7874	4.9447
10.037	109.40	92.7873	4.9447
10.045	109.40	92.7871	4.9447
10.053	109.41	92.7870	4.9447
10.062	109.41	92.7868	4.9447
10.070	109.41	92.7867	4.9447
10.078	109.41	92.7866	4.9447
10.087	109.42	92.7867	4.9447
10.095	109.42	92.7866	4.9447
10.103	109.42	92.7865	4.9447
10.112	109.42	92.7864	4.9447
10.120	109.43	92.7862	4.9447
10.128	109.43	92.7861	4.9447
10.137	109.43	92.7859	4.9446
10.145	109.43	92.7858	4.9446
10.153	109.44	92.7856	4.9446
10.162	109.44	92.7857	4.9446
10.170	109.44	92.7859	4.9446
10.178	109.44	92.7858	4.9446
10.187	109.44	92.7857	4.9446
10.195	109.45	92.7856	4.9446
10.203	109.45	92.7856	4.9446
10.212	109.45	92.7856	4.9446
10.220	109.45	92.7855	4.9446
10.228	109.45	92.7853	4.9446
10.237	109.46	92.7851	4.9446
10.245	109.46	92.7850	4.9446
10.253	109.46	92.7850	4.9446
10.262	109.46	92.7850	4.9446
10.270	109.46	92.7849	4.9446
10.278	109.46	92.7847	4.9446
10.287	109.47	92.7846	4.9446
10.295	109.47	92.7846	4.9446
10.303	109.47	92.7845	4.9446
10.312	109.47	92.7845	4.9446
10.320	109.47	92.7845	4.9446
10.328	109.47	92.7844	4.9446
10.337	109.48	92.7843	4.9446
10.345	109.48	92.7842	4.9445
10.353	109.48	92.7840	4.9445
10.362	109.48	92.7839	4.9445
10.370	109.48	92.7837	4.9445
10.378	109.48	92.7835	4.9445
10.387	109.49	92.7836	4.9445
10.395	109.49	92.7834	4.9445
10.403	109.49	92.7832	4.9445
10.412	109.49	92.7830	4.9445
10.420	109.49	92.7830	4.9445
10.428	109.49	92.7829	4.9445
10.437	109.50	92.7831	4.9445
10.445	109.50	92.7832	4.9445
10.453	109.50	92.7831	4.9445
10.462	109.50	92.7829	4.9445
10.470	109.50	92.7828	4.9445
10.478	109.50	92.7828	4.9445
10.487	109.51	92.7827	4.9445
10.495	109.51	92.7828	4.9445
10.503	109.51	92.7829	4.9445
10.512	109.51	92.7832	4.9445
10.520	109.51	92.7830	4.9445
10.528	109.51	92.7826	4.9445
10.537	109.51	92.7823	4.9444
10.545	109.52	92.7820	4.9444
10.553	109.52	92.7820	4.9444
10.562	109.52	92.7818	4.9444
10.570	109.52	92.7819	4.9444
10.578	109.52	92.7819	4.9444
10.587	109.52	92.7817	4.9444
10.595	109.52	92.7815	4.9444
10.603	109.53	92.7815	4.9444
10.612	109.53	92.7813	4.9444
10.620	109.53	92.7813	4.9444
10.628	109.53	92.7811	4.9444
10.637	109.53	92.7809	4.9444
10.645	109.53	92.7808	4.9444
10.653	109.53	92.7809	4.9444
10.662	109.53	92.7809	4.9444
10.670	109.54	92.7810	4.9444
10.678	109.54	92.7809	4.9444
10.687	109.54	92.7808	4.9444
10.695	109.54	92.7807	4.9444
10.703	109.54	92.7805	4.9444
10.712	109.54	92.7804	4.9443
10.720	109.54	92.7804	4.9443
10.728	109.54	92.7804	4.9443
10.737	109.55	92.7802	4.9443
10.745	109.55	92.7800	4.9443
10.753	109.55	92.7800	4.9443
10.762	109.55	92.7800	4.9443
10.770	109.55	92.7802	4.9443
10.778	109.55	92.7804	4.9443
10.787	109.55	92.7805	4.9444
10.795	109.55	92.7805	4.9444
10.803	109.56	92.7804	4.9443
10.812	109.56	92.7802	4.9443
10.820	109.56	92.7799	4.9443
10.828	109.56	92.7798	4.9443
10.837	109.56	92.7799	4.9443
10.845	109.56	92.7798	4.9443
10.853	109.56	92.7795	4.9443
10.862	109.57	92.7792	4.9443
10.870	109.57	92.7792	4.9443
10.878	109.57	92.7794	4.9443
10.887	109.57	92.7794	4.9443
10.895	109.57	92.7793	4.9443
10.903	109.57	92.7793	4.9443
10.912	109.57	92.7794	4.9443
10.920	109.58	92.7793	4.9443
10.928	109.58	92.7791	4.9443
10.937	109.58	92.7790	4.9443
10.945	109.58	92.7790	4.9443
10.953	109.58	92.7788	4.9443
10.962	109.58	92.7787	4.9443
10.970	109.58	92.7787	4.9443
10.978	109.58	92.7788	4.9443
10.987	109.59	92.7787	4.9443
10.995	109.59	92.7787	4.9443
11.003	109.59	92.7787	4.9443
11.012	109.59	92.7786	4.9443
11.020	109.59	92.7786	4.9443
11.028	109.59	92.7786	4.9443
11.037	109.59	92.7785	4.9442
11.045	109.59	92.7785	4.9442
11.053	109.60	92.7784	4.9442
11.062	109.60	92.7783	4.9442
11.070	109.60	92.7782	4.9442
11.078	109.60	92.7780	4.9442
11.087	109.60	92.7781	4.9442
11.095	109.60	92.7782	4.9442
11.103	109.60	92.7782	4.9442
11.112	109.60	92.7780	4.9442
11.120	109.61	92.7779	4.9442
11.128	109.61	92.7778	4.9442
11.137	109.61	92.7777	4.9442
11.145	109.61	92.7776	4.9442
11.153	109.61	92.7777	4.9442
11.162	109.61	92.7780	4.9442
11.170	109.61	92.7779	4.9442
11.178	109.61	92.7776	4.9442
11.187	109.62	92.7772	4.9442
11.195	109.62	92.7771	4.9442
11.203	109.62	92.7771	4.9442
11.212	109.62	92.7771	4.9442
11.220	109.62	92.7770	4.9442
11.228	109.62	92.7772	4.9442
11.237	109.62	92.7771	4.9442
11.245	109.62	92.7769	4.9442
11.253	109.62	92.7771	4.9442
11.262	109.63	92.7771	4.9442
11.270	109.63	92.7771	4.9442
11.278	109.63	92.7769	4.9442
11.287	109.63	92.7767	4.9442
11.295	109.63	92.7766	4.9441
11.303	109.63	92.7766	4.9441
11.312	109.63	92.7767	4.9441
11.320	109.63	92.7764	4.9441
11.328	109.63	92.7763	4.9441
11.337	109.64	92.7763	4.9441
11.345	109.64	92.7763	4.9441
11.353	109.64	92.7762	4.9441
11.362	109.64	92.7761	4.9441
11.370	109.64	92.7762	4.9441
11.378	109.64	92.7761	4.9441
11.387	109.64	92.7761	4.9441
11.395	109.64	92.7760	4.9441
11.403	109.64	92.7760	4.9441
11.412	109.64	92.7760	4.9441
11.420	109.64	92.7762	4.9441
11.428	109.65	92.7764	4.9441
11.437	109.65	92.7765	4.9441
11.445	109.65	92.7765	4.9441
11.453	109.65	92.7765	4.9441
11.462	109.65	92.7764	4.9441
11.470	109.65	92.7765	4.9441
11.478	109.65	92.7766	4.9441
11.487	109.65	92.7766	4.9441
11.495	109.65	92.7767	4.9441
11.503	109.65	92.7765	4.9441
11.512	109.65	92.7764	4.9441
11.520	109.66	92.7764	4.9441
11.528	109.66	92.7764	4.9441
11.537	109.66	92.7763	4.9441
11.545	109.66	92.7761	4.9441
11.553	109.66	92.7761	4.9441
11.562	109.66	92.7761	4.9441
11.570	109.66	92.7762	4.9441
11.578	109.66	92.7759	4.9441
11.587	109.66	92.7757	4.9441
11.595	109.67	92.7757	4.9441
11.603	109.67	92.7758	4.9441
11.612	109.67	92.7759	4.9441
11.620	109.67	92.7758	4.9441
11.628	109.67	92.7758	4.9441
11.637	109.67	92.7756	4.9441
11.645	109.67	92.7754	4.9441
11.653	109.67	92.7753	4.9441
11.662	109.67	92.7754	4.9441
11.670	109.68	92.7754	4.9441
11.678	109.68	92.7753	4.9441
11.687	109.68	92.7752	4.9441
11.695	109.68	92.7752	4.9441
11.703	109.68	92.7752	4.9441
11.712	109.68	92.7751	4.9441
11.720	109.68	92.7751	4.9441
11.728	109.68	92.7749	4.9441
11.737	109.68	92.7747	4.9440
11.745	109.69	92.7748	4.9441
11.753	109.69	92.7747	4.9440
11.762	109.69	92.7748	4.9440
11.770	109.69	92.7750	4.9441
11.778	109.69	92.7748	4.9441
11.787	109.69	92.7747	4.9440
11.795	109.69	92.7747	4.9440
11.803	109.69	92.7746	4.9440
11.812	109.70	92.7746	4.9440
11.820	109.70	92.7744	4.9440
11.828	109.70	92.7741	4.9440
11.837	109.70	92.7741	4.9440
11.845	109.70	92.7740	4.9440
11.853	109.70	92.7740	4.9440
11.862	109.70	92.7740	4.9440
11.870	109.70	92.7741	4.9440
11.878	109.70	92.7741	4.9440
11.887	109.71	92.7739	4.9440
11.895	109.71	92.7739	4.9440
11.903	109.71	92.7740	4.9440
11.912	109.71	92.7740	4.9440
11.920	109.71	92.7741	4.9440
11.928	109.71	92.7743	4.9440
11.937	109.71	92.7742	4.9440
11.945	109.71	92.7741	4.9440
11.953	109.71	92.7740	4.9440
11.962	109.72	92.7739	4.9440
11.970	109.72	92.7739	4.9440
11.978	109.72	92.7738	4.9440
11.987	109.72	92.7738	4.9440
11.995	109.72	92.7739	4.9440
12.003	109.72	92.7741	4.9440
12.012	109.72	92.7741	4.9440
12.020	109.72	92.7740	4.9440
12.028	109.72	92.7740	4.9440
12.037	109.72	92.7741	4.9440
12.045	109.73	92.7740	4.9440
12.053	109.73	92.7739	4.9440
12.062	109.73	92.7738	4.9440
12.070	109.73	92.7739	4.9440
12.078	109.73	92.7738	4.9440
12.087	109.73	92.7738	4.9440
12.095	109.73	92.7740	4.9440
12.103	109.73	92.7740	4.9440
12.112	109.73	92.7740	4.9440
12.120	109.73	92.7739	4.9440
12.128	109.73	92.7740	4.9440
12.137	109.74	92.7740	4.9440
12.145	109.74	92.7739	4.9440
12.153	109.74	92.7738	4.9440
12.162	109.74	92.7737	4.9440
12.170	109.74	92.7735	4.9440
12.178	109.74	92.7735	4.9440
12.187	109.74	92.7734	4.9440
12.195	109.74	92.7734	4.9440
12.203	109.74	92.7735	4.9440
12.212	109.74	92.7736	4.9440
12.220	109.75	92.7735	4.9440
12.228	109.75	92.7734	4.9440
12.237	109.75	92.7735	4.9440
12.245	109.75	92.7735	4.9440
12.253	109.75	92.7733	4.9440
12.262	109.75	92.7731	4.9440
12.270	109.75	92.7730	4.9440
12.278	109.75	92.7731	4.9440
12.287	109.75	92.7731	4.9440
12.295	109.76	92.7731	4.9440
12.303	109.76	92.7734	4.9440
12.312	109.76	92.7734	4.9440
12.320	109.76	92.7732	4.9440
12.328	109.76	92.7731	4.9440
12.337	109.76	92.7731	4.9440
12.345	109.76	92.7734	4.9440
12.353	109.76	92.7738	4.9440
12.362	109.76	92.7738	4.9440
12.370	109.76	92.7736	4.9440
12.378	109.77	92.7736	4.9440
12.387	109.77	92.7736	4.9440
12.395	109.77	92.7737	4.9440
12.403	109.77	92.7736	4.9440
12.412	109.77	92.7736	4.9440
12.420	109.77	92.7735	4.9440
12.428	109.77	92.7735	4.9440
12.437	109.77	92.7735	4.9440
12.445	109.77	92.7738	4.9440
12.453	109.77	92.7741	4.9440
12.462	109.78	92.7739	4.9440
12.470	109.78	92.7740	4.9440
12.478	109.78	92.7739	4.9440
12.487	109.78	92.7739	4.9440
12.495	109.78	92.7738	4.9440
12.503	109.78	92.7736	4.9440
12.512	109.78	92.7738	4.9440
12.520	109.78	92.7743	4.9440
12.528	109.78	92.7742	4.9440
12.537	109.78	92.7739	4.9440
12.545	109.78	92.7737	4.9440
12.553	109.79	92.7737	4.9440
12.562	109.79	92.7735	4.9440
12.570	109.79	92.7734	4.9440
12.578	109.79	92.7734	4.9440
12.587	109.79	92.7735	4.9440
12.595	109.79	92.7735	4.9440
12.603	109.79	92.7736	4.9440
12.612	109.79	92.7737	4.9440
12.620	109.79	92.7736	4.9440
12.628	109.79	92.7737	4.9440
12.637	109.79	92.7736	4.9440
12.645	109.79	92.7736	4.9440
12.653	109.80	92.7736	4.9440
12.662	109.80	92.7738	4.9440
12.670	109.80	92.7740	4.9440
12.678	109.80	92.7740	4.9440
12.687	109.80	92.7740	4.9440
12.695	109.80	92.7739	4.9440
12.703	109.80	92.7737	4.9440
12.712	109.80	92.7737	4.9440
12.720	109.80	92.7738	4.9440
12.728	109.80	92.7737	4.9440
12.737	109.80	92.7736	4.9440
12.745	109.80	92.7737	4.9440
12.753	109.80	92.7737	4.9440
12.762	109.80	92.7736	4.9440
12.770	109.80	92.7734	4.9440
12.778	109.81	92.7734	4.9440
12.787	109.81	92.7734	4.9440
12.795	109.81	92.7734	4.9440
12.803	109.81	92.7733	4.9440
12.812	109.81	92.7732	4.9440
12.820	109.81	92.7732	4.9440
12.828	109.81	92.7733	4.9440
12.837	109.81	92.7734	4.9440
12.845	109.81	92.7734	4.9440
12.853	109.81	92.7732	4.9440
12.862	109.81	92.7732	4.9440
12.870	109.81	92.7731	4.9440
12.878	109.81	92.7730	4.9440
12.887	109.81	92.7728	4.9439
12.895	109.82	92.7726	4.9439
12.903	109.82	92.7726	4.9439
12.912	109.82	92.7727	4.9439
12.920	109.82	92.7729	4.9440
12.928	109.82	92.7730	4.9440
12.937	109.82	92.7727	4.9439
12.945	109.82	92.7725	4.9439
12.953	109.82	92.7723	4.9439
12.962	109.82	92.7721	4.9439
12.970	109.82	92.7720	4.9439
12.978	109.82	92.7719	4.9439
12.987	109.82	92.7719	4.9439
12.995	109.82	92.7720	4.9439
13.003	109.82	92.7721	4.9439
13.012	109.83	92.7719	4.9439
13.020	109.83	92.7718	4.9439
13.028	109.83	92.7719	4.9439
13.037	109.83	92.7718	4.9439
13.045	109.83	92.7718	4.9439
13.053	109.83	92.7718	4.9439
13.062	109.83	92.7718	4.9439
13.070	109.83	92.7721	4.9439
13.078	109.83	92.7719	4.9439
13.087	109.83	92.7719	4.9439
13.095	109.83	92.7718	4.9439
13.103	109.83	92.7718	4.9439
13.112	109.83	92.7718	4.9439
13.120	109.83	92.7718	4.9439
13.128	109.83	92.7719	4.9439
13.137	109.83	92.7718	4.9439
13.145	109.84	92.7715	4.9439
13.153	109.84	92.7715	4.9439
13.162	109.84	92.7715	4.9439
13.170	109.84	92.7714	4.9439
13.178	109.84	92.7715	4.9439
13.187	109.84	92.7716	4.9439
13.195	109.84	92.7717	4.9439
13.203	109.84	92.7715	4.9439
13.212	109.84	92.7714	4.9439
13.220	109.84	92.7712	4.9439
13.228	109.84	92.7710	4.9438
13.237	109.84	92.7710	4.9438
13.245	109.84	92.7709	4.9438
13.253	109.84	92.7710	4.9438
13.262	109.84	92.7711	4.9439
13.270	109.84	92.7711	4.9439
13.278	109.84	92.7709	4.9438
13.287	109.85	92.7710	4.9438
13.295	109.85	92.7711	4.9439
13.303	109.85	92.7714	4.9439
13.312	109.85	92.7715	4.9439
13.320	109.85	92.7717	4.9439
13.328	109.85	92.7717	4.9439
13.337	109.85	92.7716	4.9439
13.345	109.85	92.7715	4.9439
13.353	109.85	92.7715	4.9439
13.362	109.85	92.7715	4.9439
13.370	109.85	92.7714	4.9439
13.378	109.85	92.7713	4.9439
13.387	109.85	92.7713	4.9439
13.395	109.85	92.7713	4.9439
13.403	109.85	92.7716	4.9439
13.412	109.85	92.7718	4.9439
13.420	109.86	92.7716	4.9439
13.428	109.86	92.7716	4.9439
13.437	109.86	92.7717	4.9439
13.445	109.86	92.7716	4.9439
13.453	109.86	92.7714	4.9439
13.462	109.86	92.7714	4.9439
13.470	109.86	92.7713	4.9439
13.478	109.86	92.7712	4.9439
13.487	109.86	92.7713	4.9439
13.495	109.86	92.7714	4.9439
13.503	109.86	92.7714	4.9439
13.512	109.86	92.7716	4.9439
13.520	109.86	92.7717	4.9439
13.528	109.86	92.7714	4.9439
13.537	109.86	92.7713	4.9439
13.545	109.87	92.7713	4.9439
13.553	109.87	92.7717	4.9439
13.562	109.87	92.7721	4.9439
13.570	109.87	92.7720	4.9439
13.578	109.87	92.7720	4.9439
13.587	109.87	92.7719	4.9439
13.595	109.87	92.7717	4.9439
13.603	109.87	92.7716	4.9439
13.612	109.87	92.7716	4.9439
13.620	109.87	92.7715	4.9439
13.628	109.87	92.7714	4.9439
13.637	109.87	92.7714	4.9439
13.645	109.87	92.7713	4.9439
13.653	109.87	92.7712	4.9439
13.662	109.87	92.7713	4.9439
13.670	109.87	92.7713	4.9439
13.678	109.87	92.7713	4.9439
13.687	109.87	92.7714	4.9439
13.695	109.87	92.7714	4.9439
13.703	109.87	92.7713	4.9439
13.712	109.87	92.7712	4.9439
13.720	109.87	92.7713	4.9439
13.728	109.88	92.7714	4.9439
13.737	109.88	92.7713	4.9439
13.745	109.88	92.7715	4.9439
13.753	109.88	92.7714	4.9439
13.762	109.88	92.7712	4.9439
13.770	109.88	92.7713	4.9439
13.778	109.88	92.7714	4.9439
13.787	109.88	92.7714	4.9439
13.795	109.88	92.7713	4.9439
13.803	109.88	92.7713	4.9439
13.812	109.88	92.7714	4.9439
13.820	109.88	92.7716	4.9439
13.828	109.88	92.7716	4.9439
13.837	109.88	92.7716	4.9439
13.845	109.88	92.7718	4.9439
13.853	109.88	92.7719	4.9439
13.862	109.88	92.7717	4.9439
13.870	109.88	92.7715	4.9439
13.878	109.88	92.7715	4.9439
13.887	109.88	92.7714	4.9439
13.895	109.88	92.7713	4.9439
13.903	109.88	92.7712	4.9439
13.912	109.88	92.7712	4.9439
13.920	109.88	92.7711	4.9439
13.928	109.88	92.7712	4.9439
13.937	109.88	92.7714	4.9439
13.945	109.88	92.7715	4.9439
13.953	109.89	92.7714	4.9439
13.962	109.89	92.7714	4.9439
13.970	109.89	92.7714	4.9439
13.978	109.89	92.7713	4.9439
13.987	109.89	92.7715	4.9439
13.995	109.89	92.7717	4.9439
14.003	109.89	92.7716	4.9439
14.012	109.89	92.7715	4.9439
14.020	109.89	92.7716	4.9439
14.028	109.89	92.7716	4.9439
14.037	109.89	92.7717	4.9439
14.045	109.89	92.7717	4.9439
14.053	109.89	92.7716	4.9439
14.062	109.89	92.7716	4.9439
14.070	109.89	92.7717	4.9439
14.078	109.89	92.7717	4.9439
14.087	109.90	92.7716	4.9439
14.095	109.90	92.7716	4.9439
14.103	109.90	92.7717	4.9439
14.112	109.90	92.7715	4.9439
14.120	109.90	92.7713	4.9439
14.128	109.90	92.7712	4.9439
14.137	109.90	92.7712	4.9439
14.145	109.90	92.7713	4.9439
14.153	109.90	92.7714	4.9439
14.162	109.90	92.7716	4.9439
14.170	109.90	92.7715	4.9439
14.178	109.90	92.7715	4.9439
14.187	109.90	92.7716	4.9439
14.195	109.90	92.7718	4.9439
14.203	109.90	92.7716	4.9439
14.212	109.90	92.7713	4.9439
14.220	109.90	92.7713	4.9439
14.228	109.90	92.7712	4.9439
14.237	109.90	92.7713	4.9439
14.245	109.90	92.7713	4.9439
14.253	109.91	92.7712	4.9439
14.262	109.91	92.7714	4.9439
14.270	109.91	92.7715	4.9439
14.278	109.91	92.7714	4.9439
14.287	109.91	92.7713	4.9439
14.295	109.91	92.7712	4.9439
14.303	109.91	92.7712	4.9439
14.312	109.91	92.7711	4.9439
14.320	109.91	92.7710	4.9438
14.328	109.91	92.7709	4.9438
14.337	109.91	92.7709	4.9438
14.345	109.91	92.7710	4.9438
14.353	109.91	92.7710	4.9438
14.362	109.91	92.7710	4.9438
14.370	109.91	92.7710	4.9438
14.378	109.91	92.7712	4.9439
14.387	109.91	92.7713	4.9439
14.395	109.91	92.7712	4.9439
14.403	109.91	92.7713	4.9439
14.412	109.91	92.7713	4.9439
14.420	109.91	92.7714	4.9439
14.428	109.91	92.7714	4.9439
14.437	109.91	92.7712	4.9439
14.445	109.91	92.7712	4.9439
14.453	109.91	92.7712	4.9439
14.462	109.91	92.7712	4.9439
14.470	109.91	92.7712	4.9439
14.478	109.91	92.7713	4.9439
14.487	109.91	92.7714	4.9439
14.495	109.91	92.7715	4.9439
14.503	109.91	92.7714	4.9439
14.512	109.91	92.7713	4.9439
14.520	109.91	92.7714	4.9439
14.528	109.91	92.7714	4.9439
14.537	109.91	92.7715	4.9439
14.545	109.91	92.7715	4.9439
14.553	109.91	92.7715	4.9439
14.562	109.91	92.7715	4.9439
14.570	109.92	92.7715	4.9439
14.578	109.92	92.7716	4.9439
14.587	109.92	92.7716	4.9439
14.595	109.92	92.7715	4.9439
14.603	109.92	92.7717	4.9439
14.612	109.92	92.7719	4.9439
14.620	109.92	92.7717	4.9439
14.628	109.92	92.7717	4.9439
14.637	109.92	92.7717	4.9439
14.645	109.92	92.7718	4.9439
14.653	109.92	92.7720	4.9439
14.662	109.92	92.7721	4.9439
14.670	109.92	92.7721	4.9439
14.678	109.92	92.7721	4.9439
14.687	109.92	92.7721	4.9439
14.695	109.92	92.7719	4.9439
14.703	109.92	92.7718	4.9439
14.712	109.92	92.7716	4.9439
14.720	109.92	92.7720	4.9439
14.728	109.92	92.7722	4.9439
14.737	109.92	92.7719	4.9439
14.745	109.92	92.7718	4.9439
14.753	109.92	92.7717	4.9439
14.762	109.92	92.7715	4.9439
14.770	109.92	92.7716	4.9439
14.778	109.92	92.7716	4.9439
14.787	109.92	92.7716	4.9439
14.795	109.92	92.7716	4.9439
14.803	109.92	92.7714	4.9439
14.812	109.92	92.7713	4.9439
14.820	109.92	92.7714	4.9439
14.828	109.92	92.7713	4.9439
14.837	109.92	92.7711	4.9439
14.845	109.92	92.7712	4.9439
14.853	109.93	92.7712	4.9439
14.862	109.93	92.7712	4.9439
14.870	109.93	92.7712	4.9439
14.878	109.93	92.7711	4.9439
14.887	109.93	92.7709	4.9438
14.895	109.93	92.7709	4.9438
14.903	109.93	92.7710	4.9438
14.912	109.93	92.7710	4.9438
14.920	109.93	92.7710	4.9438
14.928	109.93	92.7710	4.9438
14.937	109.93	92.7711	4.9439
14.945	109.93	92.7713	4.9439
14.953	109.93	92.7714	4.9439
14.962	109.93	92.7714	4.9439
14.970	109.93	92.7713	4.9439
14.978	109.93	92.7713	4.9439
14.987	109.93	92.7714	4.9439
14.995	109.93	92.7713	4.9439
15.003	109.93	92.7713	4.9439
15.012	109.93	92.7712	4.9439
15.020	109.93	92.7712	4.9439
15.028	109.93	92.7712	4.9439
15.037	109.93	92.7711	4.9439
15.045	109.93	92.7709	4.9438
15.053	109.93	92.7709	4.9438
15.062	109.93	92.7708	4.9438
15.070	109.94	92.7709	4.9438
15.078	109.94	92.7710	4.9438
15.087	109.94	92.7709	4.9438
15.095	109.94	92.7708	4.9438
15.103	109.94	92.7708	4.9438
15.112	109.94	92.7707	4.9438
15.120	109.94	92.7706	4.9438
15.128	109.94	92.7706	4.9438
15.137	109.94	92.7706	4.9438
15.145	109.94	92.7706	4.9438
15.153	109.94	92.7705	4.9438
15.162	109.94	92.7705	4.9438
15.170	109.94	92.7706	4.9438
15.178	109.94	92.7706	4.9438
15.187	109.94	92.7706	4.9438
15.195	109.94	92.7705	4.9438
15.203	109.94	92.7706	4.9438
15.212	109.94	92.7706	4.9438
15.220	109.94	92.7707	4.9438
15.228	109.94	92.7708	4.9438
15.237	109.94	92.7706	4.9438
15.245	109.94	92.7706	4.9438
15.253	109.94	92.7706	4.9438
15.262	109.94	92.7707	4.9438
15.270	109.94	92.7707	4.9438
15.278	109.94	92.7707	4.9438
15.287	109.94	92.7707	4.9438
15.295	109.94	92.7708	4.9438
15.303	109.94	92.7707	4.9438
15.312	109.94	92.7708	4.9438
15.320	109.95	92.7708	4.9438
15.328	109.95	92.7708	4.9438
15.337	109.95	92.7709	4.9438
15.345	109.95	92.7710	4.9438
15.353	109.95	92.7710	4.9438
15.362	109.95	92.7710	4.9438
15.370	109.95	92.7708	4.9438
15.378	109.95	92.7708	4.9438
15.387	109.95	92.7707	4.9438
15.395	109.95	92.7707	4.9438
15.403	109.95	92.7707	4.9438
15.412	109.95	92.7708	4.9438
15.420	109.95	92.7708	4.9438
15.428	109.95	92.7707	4.9438
15.437	109.95	92.7707	4.9438
15.445	109.95	92.7707	4.9438
15.453	109.95	92.7707	4.9438
15.462	109.95	92.7708	4.9438
15.470	109.95	92.7706	4.9438
15.478	109.95	92.7706	4.9438
15.487	109.95	92.7707	4.9438
15.495	109.95	92.7707	4.9438
15.503	109.95	92.7707	4.9438
15.512	109.95	92.7706	4.9438
15.520	109.95	92.7706	4.9438
15.528	109.95	92.7708	4.9438
15.537	109.95	92.7709	4.9438
15.545	109.95	92.7709	4.9438
15.553	109.95	92.7708	4.9438
15.562	109.95	92.7708	4.9438
15.570	109.95	92.7708	4.9438
15.578	109.95	92.7707	4.9438
15.587	109.95	92.7707	4.9438
15.595	109.95	92.7707	4.9438
15.603	109.95	92.7708	4.9438
15.612	109.95	92.7708	4.9438
15.620	109.95	92.7708	4.9438
15.628	109.95	92.7708	4.9438
15.637	109.95	92.7709	4.9438
15.645	109.95	92.7710	4.9438
15.653	109.95	92.7709	4.9438
15.662	109.95	92.7708	4.9438
15.670	109.95	92.7708	4.9438
15.678	109.95	92.7710	4.9438
15.687	109.95	92.7711	4.9439
15.695	109.95	92.7711	4.9439
15.703	109.95	92.7711	4.9439
15.712	109.95	92.7710	4.9438
15.720	109.95	92.7710	4.9438
15.728	109.95	92.7710	4.9438
15.737	109.95	92.7711	4.9439
15.745	109.95	92.7710	4.9438
15.753	109.95	92.7709	4.9438
15.762	109.95	92.7710	4.9438
15.770	109.95	92.7710	4.9438
15.778	109.95	92.7711	4.9439
15.787	109.95	92.7712	4.9439
15.795	109.95	92.7711	4.9439
15.803	109.95	92.7710	4.9438
15.812	109.95	92.7710	4.9438
15.820	109.95	92.7709	4.9438
15.828	109.95	92.7710	4.9438
15.837	109.95	92.7711	4.9439
15.845	109.95	92.7710	4.9438
15.853	109.95	92.7710	4.9438
15.862	109.96	92.7710	4.9438
15.870	109.96	92.7710	4.9438
15.878	109.96	92.7709	4.9438
15.887	109.96	92.7710	4.9438
15.895	109.96	92.7712	4.9439
15.903	109.96	92.7713	4.9439
15.912	109.96	92.7714	4.9439
15.920	109.96	92.7714	4.9439
15.928	109.96	92.7714	4.9439
15.937	109.96	92.7714	4.9439
15.945	109.96	92.7715	4.9439
15.953	109.96	92.7714	4.9439
15.962	109.96	92.7714	4.9439
15.970	109.96	92.7714	4.9439
15.978	109.96	92.7716	4.9439
15.987	109.96	92.7716	4.9439
15.995	109.96	92.7714	4.9439
16.003	109.96	92.7713	4.9439
16.012	109.96	92.7714	4.9439
16.020	109.96	92.7713	4.9439
16.028	109.96	92.7715	4.9439
16.037	109.96	92.7717	4.9439
16.045	109.96	92.7715	4.9439
16.053	109.96	92.7714	4.9439
16.062	109.96	92.7712	4.9439
16.070	109.96	92.7712	4.9439
16.078	109.96	92.7713	4.9439
16.087	109.96	92.7711	4.9439
16.095	109.96	92.7711	4.9439
16.103	109.96	92.7711	4.9439
16.112	109.96	92.7710	4.9438
16.120	109.96	92.7711	4.9439
16.128	109.96	92.7712	4.9439
16.137	109.96	92.7711	4.9439
16.145	109.96	92.7710	4.9438
16.153	109.96	92.7709	4.9438
16.162	109.96	92.7709	4.9438
16.170	109.96	92.7709	4.9438
16.178	109.96	92.7710	4.9438
16.187	109.96	92.7711	4.9439
16.195	109.96	92.7711	4.9439
16.203	109.96	92.7711	4.9439
16.212	109.96	92.7711	4.9439
16.220	109.96	92.7713	4.9439
16.228	109.96	92.7714	4.9439
16.237	109.96	92.7714	4.9439
16.245	109.96	92.7714	4.9439
16.253	109.96	92.7714	4.9439
16.262	109.96	92.7714	4.9439
16.270	109.96	92.7715	4.9439
16.278	109.96	92.7718	4.9439
16.287	109.96	92.7722	4.9439
16.295	109.96	92.7723	4.9439
16.303	109.96	92.7724	4.9439
16.312	109.96	92.7724	4.9439
16.320	109.96	92.7724	4.9439
16.328	109.96	92.7723	4.9439
16.337	109.96	92.7724	4.9439
16.345	109.96	92.7724	4.9439
16.353	109.96	92.7726	4.9439
16.362	109.96	92.7725	4.9439
16.370	109.96	92.7723	4.9439
16.378	109.96	92.7722	4.9439
16.387	109.96	92.7724	4.9439
16.395	109.96	92.7724	4.9439
16.403	109.96	92.7723	4.9439
16.412	109.96	92.7723	4.9439
16.420	109.96	92.7724	4.9439
16.428	109.96	92.7726	4.9439
16.437	109.96	92.7727	4.9439
16.445	109.97	92.7729	4.9439
16.453	109.97	92.7729	4.9439
16.462	109.97	92.7728	4.9439
16.470	109.97	92.7728	4.9439
16.478	109.97	92.7730	4.9440
16.487	109.97	92.7729	4.9439
16.495	109.97	92.7729	4.9439
16.503	109.97	92.7728	4.9439
16.512	109.97	92.7728	4.9439
16.520	109.97	92.7728	4.9439
16.528	109.97	92.7728	4.9439
16.537	109.97	92.7728	4.9439
16.545	109.97	92.7727	4.9439
16.553	109.97	92.7727	4.9439
16.562	109.97	92.7727	4.9439
16.570	109.97	92.7729	4.9440
16.578	109.97	92.7730	4.9440
16.587	109.97	92.7729	4.9440
16.595	109.97	92.7729	4.9439
16.603	109.97	92.7728	4.9439
16.612	109.97	92.7727	4.9439
16.620	109.97	92.7727	4.9439
16.628	109.97	92.7728	4.9439
16.637	109.97	92.7729	4.9439
16.645	109.97	92.7728	4.9439
16.653	109.97	92.7727	4.9439
16.662	109.97	92.7727	4.9439
16.670	109.97	92.7728	4.9439
16.678	109.97	92.7726	4.9439
16.687	109.97	92.7725	4.9439
16.695	109.97	92.7723	4.9439
16.703	109.97	92.7723	4.9439
16.712	109.97	92.7722	4.9439
16.720	109.97	92.7721	4.9439
16.728	109.97	92.7721	4.9439
16.737	109.97	92.7721	4.9439
16.745	109.97	92.7721	4.9439
16.753	109.97	92.7722	4.9439
16.762	109.97	92.7722	4.9439
16.770	109.97	92.7721	4.9439
16.778	109.97	92.7720	4.9439
16.787	109.97	92.7719	4.9439
16.795	109.97	92.7720	4.9439
16.803	109.97	92.7721	4.9439
16.812	109.97	92.7722	4.9439
16.820	109.97	92.7723	4.9439
16.828	109.97	92.7723	4.9439
16.837	109.97	92.7722	4.9439
16.845	109.97	92.7723	4.9439
16.853	109.97	92.7724	4.9439
16.862	109.97	92.7724	4.9439
16.870	109.97	92.7726	4.9439
16.878	109.97	92.7725	4.9439
16.887	109.97	92.7726	4.9439
16.895	109.97	92.7726	4.9439
16.903	109.97	92.7725	4.9439
16.912	109.97	92.7725	4.9439
16.920	109.97	92.7725	4.9439
16.928	109.97	92.7725	4.9439
16.937	109.97	92.7723	4.9439
16.945	109.97	92.7724	4.9439
16.953	109.97	92.7724	4.9439
16.962	109.97	92.7724	4.9439
16.970	109.97	92.7724	4.9439
16.978	109.97	92.7724	4.9439
16.987	109.97	92.7726	4.9439
16.995	109.97	92.7727	4.9439
17.003	109.97	92.7728	4.9439
17.012	109.97	92.7729	4.9439
17.020	109.97	92.7730	4.9440
17.028	109.97	92.7731	4.9440
17.037	109.97	92.7732	4.9440
17.045	109.97	92.7735	4.9440
17.053	109.97	92.7734	4.9440
17.062	109.97	92.7733	4.9440
17.070	109.97	92.7732	4.9440
17.078	109.97	92.7733	4.9440
17.087	109.97	92.7731	4.9440
17.095	109.97	92.7731	4.9440
17.103	109.97	92.7729	4.9439
17.112	109.97	92.7730	4.9440
17.120	109.97	92.7732	4.9440
17.128	109.97	92.7732	4.9440
17.137	109.97	92.7732	4.9440
17.145	109.97	92.7733	4.9440
17.153	109.97	92.7734	4.9440
17.162	109.97	92.7734	4.9440
17.170	109.98	92.7732	4.9440
17.178	109.98	92.7731	4.9440
17.187	109.98	92.7731	4.9440
17.195	109.98	92.7731	4.9440
17.203	109.98	92.7730	4.9440
17.212	109.98	92.7730	4.9440
17.220	109.98	92.7731	4.9440
17.228	109.98	92.7732	4.9440
17.237	109.98	92.7732	4.9440
17.245	109.98	92.7732	4.9440
17.253	109.98	92.7732	4.9440
17.262	109.98	92.7734	4.9440
17.270	109.98	92.7735	4.9440
17.278	109.98	92.7735	4.9440
17.287	109.98	92.7733	4.9440
17.295	109.98	92.7732	4.9440
17.303	109.98	92.7731	4.9440
17.312	109.98	92.7730	4.9440
17.320	109.98	92.7732	4.9440
17.328	109.98	92.7732	4.9440
17.337	109.98	92.7731	4.9440
17.345	109.98	92.7731	4.9440
17.353	109.98	92.7732	4.9440
17.362	109.98	92.7733	4.9440
17.370	109.98	92.7734	4.9440
17.378	109.98	92.7733	4.9440
17.387	109.98	92.7732	4.9440
17.395	109.98	92.7731	4.9440
17.403	109.98	92.7730	4.9440
17.412	109.98	92.7729	4.9439
17.420	109.98	92.7728	4.9439
17.428	109.98	92.7727	4.9439
17.437	109.98	92.7727	4.9439
17.445	109.98	92.7729	4.9439
17.453	109.98	92.7728	4.9439
17.462	109.98	92.7726	4.9439
17.470	109.98	92.7725	4.9439
17.478	109.98	92.7726	4.9439
17.487	109.98	92.7726	4.9439
17.495	109.98	92.7728	4.9439
17.503	109.98	92.7729	4.9439
17.512	109.98	92.7730	4.9440
17.520	109.98	92.7728	4.9439
17.528	109.98	92.7727	4.9439
17.537	109.98	92.7728	4.9439
17.545	109.98	92.7730	4.9440
17.553	109.98	92.7734	4.9440
17.562	109.98	92.7736	4.9440
17.570	109.98	92.7736	4.9440
17.578	109.98	92.7737	4.9440
17.587	109.98	92.7737	4.9440
17.595	109.98	92.7736	4.9440
17.603	109.98	92.7737	4.9440
17.612	109.98	92.7739	4.9440
17.620	109.98	92.7740	4.9440
17.628	109.98	92.7740	4.9440
17.637	109.98	92.7738	4.9440
17.645	109.98	92.7738	4.9440
17.653	109.98	92.7738	4.9440
17.662	109.98	92.7739	4.9440
17.670	109.98	92.7739	4.9440
17.678	109.98	92.7736	4.9440
17.687	109.98	92.7736	4.9440
17.695	109.98	92.7736	4.9440
17.703	109.98	92.7735	4.9440
17.712	109.98	92.7735	4.9440
17.720	109.98	92.7734	4.9440
17.728	109.98	92.7733	4.9440
17.737	109.98	92.7733	4.9440
17.745	109.98	92.7733	4.9440
17.753	109.98	92.7732	4.9440
17.762	109.98	92.7732	4.9440
17.770	109.98	92.7732	4.9440
17.778	109.98	92.7733	4.9440
17.787	109.98	92.7733	4.9440
17.795	109.98	92.7733	4.9440
17.803	109.98	92.7733	4.9440
17.812	109.98	92.7734	4.9440
17.820	109.98	92.7735	4.9440
17.828	109.98	92.7736	4.9440
17.837	109.98	92.7739	4.9440
17.845	109.98	92.7739	4.9440
17.853	109.98	92.7737	4.9440
17.862	109.98	92.7737	4.9440
17.870	109.98	92.7740	4.9440
17.878	109.98	92.7738	4.9440
17.887	109.98	92.7736	4.9440
17.895	109.98	92.7735	4.9440
17.903	109.98	92.7735	4.9440
17.912	109.98	92.7735	4.9440
17.920	109.98	92.7735	4.9440
17.928	109.98	92.7734	4.9440
17.937	109.98	92.7732	4.9440
17.945	109.98	92.7731	4.9440
17.953	109.98	92.7733	4.9440
17.962	109.98	92.7735	4.9440
17.970	109.99	92.7734	4.9440
17.978	109.99	92.7734	4.9440
17.987	109.99	92.7733	4.9440
17.995	109.99	92.7733	4.9440
18.003	109.99	92.7733	4.9440
18.012	109.99	92.7734	4.9440
18.020	109.99	92.7736	4.9440
18.028	109.99	92.7736	4.9440
18.037	109.99	92.7735	4.9440
18.045	109.99	92.7734	4.9440
18.053	109.99	92.7734	4.9440
18.062	109.99	92.7734	4.9440
18.070	109.99	92.7733	4.9440
18.078	109.99	92.7733	4.9440
18.087	109.99	92.7733	4.9440
18.095	109.99	92.7732	4.9440
18.103	109.99	92.7730	4.9440
18.112	109.99	92.7731	4.9440
18.120	109.99	92.7733	4.9440
18.128	109.99	92.7733	4.9440
18.137	109.99	92.7732	4.9440
18.145	109.99	92.7732	4.9440
18.153	109.99	92.7732	4.9440
18.162	109.99	92.7731	4.9440
18.170	109.99	92.7730	4.9440
18.178	109.99	92.7732	4.9440
18.187	109.99	92.7734	4.9440
18.195	109.99	92.7732	4.9440
18.203	109.99	92.7732	4.9440
18.212	109.99	92.7732	4.9440
18.220	109.99	92.7730	4.9440
18.228	109.99	92.7729	4.9439
18.237	109.99	92.7727	4.9439
18.245	109.99	92.7727	4.9439
18.253	109.99	92.7727	4.9439
18.262	109.99	92.7727	4.9439
18.270	109.99	92.7726	4.9439
18.278	109.99	92.7727	4.9439
18.287	109.99	92.7727	4.9439
18.295	109.99	92.7728	4.9439
18.303	109.99	92.7730	4.9440
18.312	109.99	92.7732	4.9440
18.320	109.99	92.7731	4.9440
18.328	109.99	92.7729	4.9439
18.337	109.99	92.7727	4.9439
18.345	109.99	92.7726	4.9439
18.353	109.99	92.7725	4.9439
18.362	109.99	92.7725	4.9439
18.370	109.99	92.7725	4.9439
18.378	109.99	92.7725	4.9439
18.387	109.99	92.7725	4.9439
18.395	109.99	92.7725	4.9439
18.403	109.99	92.7724	4.9439
18.412	109.99	92.7725	4.9439
18.420	109.99	92.7725	4.9439
18.428	109.99	92.7726	4.9439
18.437	109.99	92.7726	4.9439
18.445	109.99	92.7727	4.9439
18.453	109.99	92.7729	4.9439
18.462	109.99	92.7729	4.9439
18.470	109.99	92.7728	4.9439
18.478	109.99	92.7729	4.9439
18.487	109.99	92.7727	4.9439
18.495	109.99	92.7726	4.9439
18.503	109.99	92.7726	4.9439
18.512	109.99	92.7725	4.9439
18.520	109.99	92.7727	4.9439
18.528	109.99	92.7730	4.9440
18.537	109.99	92.7731	4.9440
18.545	109.99	92.7731	4.9440
18.553	109.99	92.7730	4.9440
18.562	109.99	92.7731	4.9440
18.570	109.99	92.7731	4.9440
18.578	109.99	92.7731	4.9440
18.587	109.99	92.7732	4.9440
18.595	109.99	92.7732	4.9440
18.603	109.99	92.7732	4.9440
18.612	109.99	92.7731	4.9440
18.620	109.99	92.7733	4.9440
18.628	109.99	92.7734	4.9440
18.637	109.99	92.7733	4.9440
18.645	109.99	92.7731	4.9440
18.653	109.99	92.7732	4.9440
18.662	109.99	92.7733	4.9440
18.670	109.99	92.7734	4.9440
18.678	109.99	92.7737	4.9440
18.687	109.99	92.7739	4.9440
18.695	109.99	92.7739	4.9440
18.703	109.99	92.7738	4.9440
18.712	109.99	92.7736	4.9440
18.720	109.99	92.7737	4.9440
18.728	109.99	92.7739	4.9440
18.737	109.99	92.7742	4.9440
18.745	109.99	92.7743	4.9440
18.753	109.99	92.7743	4.9440
18.762	109.99	92.7741	4.9440
18.770	109.99	92.7739	4.9440
18.778	109.99	92.7741	4.9440
18.787	109.99	92.7743	4.9440
18.795	109.99	92.7743	4.9440
18.803	109.99	92.7740	4.9440
18.812	109.99	92.7738	4.9440
18.820	109.99	92.7738	4.9440
18.828	109.99	92.7739	4.9440
18.837	109.99	92.7742	4.9440
18.845	109.99	92.7742	4.9440
18.853	109.99	92.7742	4.9440
18.862	109.99	92.7743	4.9440
18.870	109.99	92.7745	4.9440
18.878	109.99	92.7748	4.9441
18.887	109.99	92.7747	4.9440
18.895	109.99	92.7747	4.9440
18.903	109.99	92.7746	4.9440
18.912	109.99	92.7743	4.9440
18.920	109.99	92.7743	4.9440
18.928	109.99	92.7745	4.9440
18.937	109.99	92.7744	4.9440
18.945	109.99	92.7744	4.9440
18.953	109.99	92.7742	4.9440
18.962	109.99	92.7738	4.9440
18.970	109.99	92.7736	4.9440
18.978	109.99	92.7734	4.9440
18.987	109.99	92.7732	4.9440
18.995	109.99	92.7730	4.9440
19.003	109.99	92.7729	4.9439
19.012	109.99	92.7729	4.9439
19.020	109.99	92.7727	4.9439
19.028	109.99	92.7726	4.9439
19.037	109.99	92.7724	4.9439
19.045	109.99	92.7722	4.9439
19.053	109.98	92.7721	4.9439
19.062	109.98	92.7721	4.9439
19.070	109.98	92.7722	4.9439
19.078	109.98	92.7721	4.9439
19.087	109.98	92.7720	4.9439
19.095	109.98	92.7719	4.9439
19.103	109.98	92.7718	4.9439
19.112	109.98	92.7716	4.9439
19.120	109.98	92.7716	4.9439
19.128	109.98	92.7715	4.9439
19.137	109.98	92.7716	4.9439
19.145	109.98	92.7716	4.9439
19.153	109.98	92.7716	4.9439
19.162	109.98	92.7715	4.9439
19.170	109.98	92.7716	4.9439
19.178	109.98	92.7715	4.9439
19.187	109.98	92.7712	4.9439
19.195	109.98	92.7711	4.9439
19.203	109.98	92.7712	4.9439
19.212	109.98	92.7712	4.9439
19.220	109.98	92.7710	4.9438
19.228	109.98	92.7710	4.9438
19.237	109.98	92.7710	4.9438
19.245	109.98	92.7709	4.9438
19.253	109.98	92.7709	4.9438
19.262	109.98	92.7710	4.9438
19.270	109.98	92.7710	4.9438
19.278	109.98	92.7708	4.9438
19.287	109.98	92.7706	4.9438
19.295	109.98	92.7706	4.9438
19.303	109.98	92.7707	4.9438
19.312	109.99	92.7707	4.9438
19.320	109.99	92.7706	4.9438
19.328	109.99	92.7705	4.9438
19.337	109.99	92.7707	4.9438
19.345	109.99	92.7706	4.9438
19.353	109.99	92.7705	4.9438
19.362	109.99	92.7706	4.9438
19.370	109.99	92.7708	4.9438
19.378	109.99	92.7709	4.9438
19.387	109.99	92.7710	4.9438
19.395	109.99	92.7710	4.9438
19.403	109.99	92.7707	4.9438
19.412	109.99	92.7706	4.9438
19.420	109.99	92.7705	4.9438
19.428	109.99	92.7705	4.9438
19.437	109.99	92.7705	4.9438
19.445	109.99	92.7704	4.9438
19.453	109.99	92.7705	4.9438
19.462	109.99	92.7706	4.9438
19.470	109.99	92.7706	4.9438
19.478	109.99	92.7704	4.9438
19.487	109.99	92.7701	4.9438
19.495	109.99	92.7700	4.9438
19.503	109.99	92.7700	4.9438
19.512	109.99	92.7700	4.9438
19.520	109.99	92.7703	4.9438
19.528	109.99	92.7706	4.9438
19.537	109.99	92.7707	4.9438
19.545	109.99	92.7709	4.9438
19.553	109.99	92.7708	4.9438
19.562	109.99	92.7707	4.9438
19.570	109.99	92.7708	4.9438
19.578	109.99	92.7708	4.9438
19.587	109.99	92.7707	4.9438
19.595	109.99	92.7707	4.9438
19.603	109.99	92.7707	4.9438
19.612	109.99	92.7707	4.9438
19.620	109.99	92.7706	4.9438
19.628	109.99	92.7705	4.9438
19.637	109.99	92.7705	4.9438
19.645	109.99	92.7704	4.9438
19.653	109.99	92.7703	4.9438
19.662	109.99	92.7702	4.9438
19.670	109.99	92.7702	4.9438
19.678	109.99	92.7704	4.9438
19.687	110.00	92.7703	4.9438
19.695	110.00	92.7703	4.9438
19.703	110.00	92.7704	4.9438
19.712	110.00	92.7704	4.9438
19.720	110.00	92.7704	4.9438
19.728	110.00	92.7703	4.9438
19.737	110.00	92.7702	4.9438
19.745	110.00	92.7701	4.9438
19.753	110.00	92.7701	4.9438
19.762	110.00	92.7701	4.9438
19.770	110.00	92.7702	4.9438
19.778	110.00	92.7704	4.9438
19.787	110.00	92.7703	4.9438
19.795	110.00	92.7702	4.9438
19.803	110.00	92.7702	4.9438
19.812	110.00	92.7702	4.9438
19.820	110.00	92.7703	4.9438
19.828	110.00	92.7702	4.9438
19.837	110.00	92.7701	4.9438
19.845	110.00	92.7703	4.9438
19.853	110.00	92.7706	4.9438
19.862	110.00	92.7707	4.9438
19.870	110.00	92.7706	4.9438
19.878	110.00	92.7706	4.9438
19.887	110.00	92.7706	4.9438
19.895	110.00	92.7707	4.9438
19.903	110.00	92.7706	4.9438
19.912	110.00	92.7706	4.9438
19.920	110.00	92.7707	4.9438
19.928	110.00	92.7707	4.9438
19.937	110.00	92.7711	4.9439
19.945	110.00	92.7717	4.9439
19.953	110.00	92.7719	4.9439
19.962	110.00	92.7715	4.9439
19.970	110.00	92.7712	4.9439
19.978	110.00	92.7710	4.9438
19.987	110.00	92.7710	4.9438
19.995	110.00	92.7711	4.9439
20.003	110.00	92.7712	4.9439
20.012	110.00	92.7712	4.9439
20.020	110.00	92.7714	4.9439
20.028	110.00	92.7713	4.9439
20.037	110.00	92.7713	4.9439
20.045	110.00	92.7714	4.9439
20.053	110.00	92.7713	4.9439
20.062	110.00	92.7713	4.9439
20.070	110.00	92.7712	4.9439
20.078	110.00	92.7710	4.9438
20.087	110.00	92.7709	4.9438
20.095	110.00	92.7710	4.9438
20.103	110.00	92.7710	4.9438
20.112	110.00	92.7710	4.9438
20.120	110.00	92.7711	4.9439
20.128	110.00	92.7710	4.9438
20.137	110.00	92.7709	4.9438
20.145	110.00	92.7707	4.9438
20.153	110.00	92.7707	4.9438
20.162	110.00	92.7707	4.9438
20.170	110.00	92.7709	4.9438
20.178	110.00	92.7709	4.9438
20.187	110.00	92.7708	4.9438
20.195	110.00	92.7707	4.9438
20.203	110.00	92.7706	4.9438
20.212	110.00	92.7706	4.9438
20.220	110.00	92.7708	4.9438
20.228	110.00	92.7707	4.9438
20.237	110.00	92.7705	4.9438
20.245	110.00	92.7705	4.9438
20.253	110.00	92.7704	4.9438
20.262	110.00	92.7705	4.9438
20.270	110.00	92.7705	4.9438
20.278	110.00	92.7704	4.9438
20.287	110.00	92.7704	4.9438
20.295	110.00	92.7704	4.9438
20.303	110.00	92.7705	4.9438
20.312	110.00	92.7705	4.9438
20.320	110.00	92.7705	4.9438
20.328	110.00	92.7706	4.9438
20.337	110.00	92.7706	4.9438
20.345	110.00	92.7707	4.9438
20.353	110.00	92.7708	4.9438
20.362	110.00	92.7710	4.9438
20.370	110.00	92.7711	4.9439
20.378	110.00	92.7711	4.9439
20.387	110.00	92.7714	4.9439
20.395	110.00	92.7712	4.9439
20.403	110.00	92.7708	4.9438
20.412	110.00	92.7708	4.9438
20.420	110.00	92.7711	4.9439
20.428	110.00	92.7713	4.9439
20.437	110.00	92.7714	4.9439
20.445	110.00	92.7714	4.9439
20.453	110.00	92.7710	4.9438
20.462	110.00	92.7708	4.9438
20.470	110.00	92.7710	4.9438
20.478	110.00	92.7708	4.9438
20.487	110.00	92.7705	4.9438
20.495	110.00	92.7705	4.9438
20.503	110.00	92.7707	4.9438
20.512	110.00	92.7709	4.9438
20.520	110.00	92.7710	4.9438
20.528	110.00	92.7711	4.9439
20.537	110.00	92.7714	4.9439
20.545	110.00	92.7714	4.9439
20.553	110.00	92.7714	4.9439
20.562	110.00	92.7714	4.9439
20.570	110.00	92.7713	4.9439
20.578	110.00	92.7713	4.9439
20.587	110.00	92.7713	4.9439
20.595	110.00	92.7712	4.9439
20.603	110.00	92.7712	4.9439
20.612	110.00	92.7712	4.9439
20.620	110.00	92.7712	4.9439
20.628	110.00	92.7712	4.9439
20.637	110.00	92.7712	4.9439
20.645	110.00	92.7712	4.9439
20.653	110.00	92.7712	4.9439
20.662	110.00	92.7713	4.9439
20.670	110.00	92.7712	4.9439
20.678	110.00	92.7713	4.9439
20.687	110.00	92.7715	4.9439
20.695	110.00	92.7717	4.9439
20.703	110.00	92.7716	4.9439
20.712	110.00	92.7714	4.9439
20.720	110.00	92.7713	4.9439
20.728	110.00	92.7713	4.9439
20.737	110.00	92.7714	4.9439
20.745	110.00	92.7714	4.9439
20.753	110.00	92.7712	4.9439
20.762	110.00	92.7711	4.9439
20.770	110.00	92.7712	4.9439
20.778	110.00	92.7713	4.9439
20.787	110.00	92.7714	4.9439
20.795	110.00	92.7716	4.9439
20.803	110.00	92.7715	4.9439
20.812	110.00	92.7714	4.9439
20.820	110.00	92.7717	4.9439
20.828	110.00	92.7718	4.9439
20.837	110.00	92.7719	4.9439
20.845	110.00	92.7720	4.9439
20.853	110.00	92.7718	4.9439
20.862	110.00	92.7717	4.9439
20.870	110.00	92.7716	4.9439
20.878	110.00	92.7717	4.9439
20.887	110.00	92.7718	4.9439
20.895	110.00	92.7720	4.9439
20.903	110.00	92.7718	4.9439
20.912	110.00	92.7715	4.9439
20.920	110.00	92.7715	4.9439
20.928	110.00	92.7715	4.9439
20.937	110.00	92.7716	4.9439
20.945	110.00	92.7714	4.9439
20.953	110.00	92.7713	4.9439
20.962	110.00	92.7713	4.9439
20.970	110.00	92.7713	4.9439
20.978	110.00	92.7713	4.9439
20.987	110.00	92.7713	4.9439
20.995	110.00	92.7713	4.9439
21.003	110.00	92.7712	4.9439
21.012	110.00	92.7712	4.9439
21.020	110.00	92.7712	4.9439
21.028	110.00	92.7712	4.9439
21.037	110.00	92.7711	4.9439
21.045	110.00	92.7711	4.9439
21.053	110.00	92.7710	4.9438
21.062	110.00	92.7710	4.9438
21.070	110.00	92.7712	4.9439
21.078	110.00	92.7711	4.9439
21.087	110.00	92.7708	4.9438
21.095	110.00	92.7710	4.9438
21.103	110.00	92.7712	4.9439
21.112	110.00	92.7710	4.9438
21.120	110.00	92.7708	4.9438
21.128	110.00	92.7709	4.9438
21.137	110.00	92.7711	4.9439
21.145	110.00	92.7710	4.9438
21.153	110.00	92.7711	4.9439
21.162	110.00	92.7710	4.9438
21.170	110.00	92.7710	4.9438
21.178	110.00	92.7712	4.9439
21.187	110.00	92.7711	4.9439
21.195	110.00	92.7711	4.9439
21.203	110.00	92.7711	4.9439
21.212	110.00	92.7711	4.9439
21.220	110.00	92.7711	4.9439
21.228	110.00	92.7710	4.9438
21.237	110.00	92.7710	4.9438
21.245	110.00	92.7708	4.9438
21.253	110.00	92.7708	4.9438
21.262	110.00	92.7711	4.9439
21.270	110.00	92.7714	4.9439
21.278	110.00	92.7711	4.9439
21.287	110.00	92.7708	4.9438
21.295	110.00	92.7709	4.9438
21.303	110.00	92.7710	4.9438
21.312	110.00	92.7711	4.9439
21.320	110.00	92.7709	4.9438
21.328	110.00	92.7710	4.9438
21.337	110.00	92.7710	4.9438
21.345	110.00	92.7710	4.9438
21.353	110.00	92.7709	4.9438
21.362	110.00	92.7709	4.9438
21.370	110.00	92.7710	4.9438
21.378	110.00	92.7712	4.9439
21.387	110.00	92.7714	4.9439
21.395	110.00	92.7714	4.9439
21.403	110.00	92.7714	4.9439
21.412	110.00	92.7713	4.9439
21.420	110.00	92.7712	4.9439
21.428	110.00	92.7712	4.9439
21.437	110.00	92.7712	4.9439
21.445	110.00	92.7711	4.9439
21.453	110.00	92.7712	4.9439
21.462	110.00	92.7712	4.9439
21.470	110.00	92.7713	4.9439
21.478	110.00	92.7712	4.9439
21.487	110.00	92.7711	4.9439
21.495	110.00	92.7712	4.9439
21.503	110.00	92.7712	4.9439
21.512	110.00	92.7711	4.9439
21.520	110.00	92.7711	4.9439
21.528	110.00	92.7710	4.9438
21.537	110.00	92.7709	4.9438
21.545	110.00	92.7709	4.9438
21.553	110.00	92.7710	4.9438
21.562	110.00	92.7709	4.9438
21.570	110.00	92.7709	4.9438
21.578	110.00	92.7711	4.9439
21.587	110.00	92.7710	4.9438
21.595	110.00	92.7710	4.9438
21.603	110.00	92.7711	4.9439
21.612	110.00	92.7712	4.9439
21.620	110.00	92.7712	4.9439
21.628	110.00	92.7711	4.9439
21.637	110.00	92.7712	4.9439
21.645	110.00	92.7713	4.9439
21.653	110.00	92.7713	4.9439
21.662	110.00	92.7712	4.9439
21.670	110.00	92.7710	4.9438
21.678	110.00	92.7709	4.9438
21.687	110.00	92.7708	4.9438
21.695	110.00	92.7707	4.9438
21.703	110.00	92.7707	4.9438
21.712	110.00	92.7707	4.9438
21.720	110.00	92.7709	4.9438
21.728	109.99	92.7710	4.9438
21.737	109.99	92.7711	4.9439
21.745	109.99	92.7711	4.9439
21.753	109.99	92.7712	4.9439
21.762	109.99	92.7712	4.9439
21.770	109.99	92.7714	4.9439
21.778	109.99	92.7713	4.9439
21.787	109.99	92.7713	4.9439
21.795	109.99	92.7712	4.9439
21.803	109.99	92.7712	4.9439
21.812	109.99	92.7712	4.9439
21.820	109.99	92.7712	4.9439
21.828	109.99	92.7712	4.9439
21.837	109.99	92.7711	4.9439
21.845	109.99	92.7711	4.9439
21.853	109.99	92.7712	4.9439
21.862	109.99	92.7712	4.9439
21.870	109.99	92.7712	4.9439
21.878	109.99	92.7712	4.9439
21.887	109.99	92.7714	4.9439
21.895	109.99	92.7714	4.9439
21.903	109.99	92.7715	4.9439
21.912	109.99	92.7715	4.9439
21.920	109.99	92.7717	4.9439
21.928	109.99	92.7718	4.9439
21.937	109.99	92.7718	4.9439
21.945	109.99	92.7716	4.9439
21.953	109.99	92.7716	4.9439
21.962	109.99	92.7717	4.9439
21.970	109.99	92.7717	4.9439
21.978	109.99	92.7718	4.9439
21.987	109.99	92.7716	4.9439
21.995	109.99	92.7715	4.9439
22.003	109.99	92.7716	4.9439
22.012	109.99	92.7716	4.9439
22.020	109.99	92.7716	4.9439
22.028	109.99	92.7718	4.9439
22.037	109.99	92.7719	4.9439
22.045	109.99	92.7721	4.9439
22.053	109.99	92.7724	4.9439
22.062	109.99	92.7722	4.9439
22.070	109.99	92.7719	4.9439
22.078	109.99	92.7717	4.9439
22.087	109.99	92.7717	4.9439
22.095	109.99	92.7715	4.9439
22.103	109.99	92.7715	4.9439
22.112	109.99	92.7714	4.9439
22.120	109.99	92.7713	4.9439
22.128	109.99	92.7711	4.9439
22.137	109.99	92.7711	4.9439
22.145	109.99	92.7711	4.9439
22.153	109.99	92.7710	4.9438
22.162	109.99	92.7709	4.9438
22.170	109.99	92.7711	4.9439
22.178	109.99	92.7711	4.9439
22.187	109.99	92.7711	4.9439
22.195	109.99	92.7712	4.9439
22.203	109.99	92.7714	4.9439
22.212	109.99	92.7712	4.9439
22.220	109.99	92.7711	4.9439
22.228	109.99	92.7711	4.9439
22.237	109.99	92.7712	4.9439
22.245	109.99	92.7715	4.9439
22.253	109.99	92.7715	4.9439
22.262	109.99	92.7715	4.9439
22.270	109.99	92.7717	4.9439
22.278	109.99	92.7718	4.9439
22.287	109.99	92.7716	4.9439
22.295	109.99	92.7714	4.9439
22.303	109.99	92.7715	4.9439
22.312	109.99	92.7715	4.9439
22.320	109.99	92.7718	4.9439
22.328	109.99	92.7719	4.9439
22.337	109.99	92.7718	4.9439
22.345	109.99	92.7718	4.9439
22.353	109.99	92.7719	4.9439
22.362	109.99	92.7720	4.9439
22.370	109.99	92.7720	4.9439
22.378	109.99	92.7719	4.9439
22.387	109.99	92.7718	4.9439
22.395	109.99	92.7718	4.9439
22.403	109.99	92.7719	4.9439
22.412	109.99	92.7720	4.9439
22.420	109.99	92.7719	4.9439
22.428	109.99	92.7718	4.9439
22.437	109.99	92.7718	4.9439
22.445	109.99	92.7716	4.9439
22.453	109.99	92.7716	4.9439
22.462	109.99	92.7718	4.9439
22.470	109.99	92.7716	4.9439
22.478	109.99	92.7715	4.9439
22.487	109.99	92.7714	4.9439
22.495	109.99	92.7713	4.9439
22.503	109.99	92.7712	4.9439
22.512	109.99	92.7711	4.9439
22.520	109.99	92.7710	4.9438
22.528	109.99	92.7710	4.9438
22.537	109.99	92.7709	4.9438
22.545	109.99	92.7709	4.9438
22.553	109.99	92.7709	4.9438
22.562	109.99	92.7710	4.9438
22.570	109.99	92.7709	4.9438
22.578	109.99	92.7710	4.9438
22.587	109.99	92.7710	4.9438
22.595	109.99	92.7708	4.9438
22.603	109.99	92.7706	4.9438
22.612	109.99	92.7706	4.9438
22.620	109.99	92.7706	4.9438
22.628	109.99	92.7706	4.9438
22.637	109.99	92.7704	4.9438
22.645	109.99	92.7703	4.9438
22.653	109.99	92.7704	4.9438
22.662	109.99	92.7705	4.9438
22.670	110.00	92.7705	4.9438
22.678	110.00	92.7705	4.9438
22.687	110.00	92.7705	4.9438
22.695	110.00	92.7706	4.9438
22.703	110.00	92.7705	4.9438
22.712	110.00	92.7704	4.9438
22.720	110.00	92.7704	4.9438
22.728	110.00	92.7705	4.9438
22.737	110.00	92.7706	4.9438
22.745	110.00	92.7706	4.9438
22.753	110.00	92.7707	4.9438
22.762	110.00	92.7708	4.9438
22.770	110.00	92.7707	4.9438
22.778	110.00	92.7705	4.9438
22.787	110.00	92.7704	4.9438
22.795	110.00	92.7703	4.9438
22.803	110.00	92.7703	4.9438
22.812	110.00	92.7703	4.9438
22.820	110.00	92.7702	4.9438
22.828	110.00	92.7703	4.9438
22.837	110.00	92.7704	4.9438
22.845	110.00	92.7704	4.9438
22.853	110.00	92.7703	4.9438
22.862	110.00	92.7703	4.9438
22.870	110.00	92.7703	4.9438
22.878	110.00	92.7704	4.9438
22.887	110.00	92.7703	4.9438
22.895	110.00	92.7702	4.9438
22.903	110.00	92.7703	4.9438
22.912	110.00	92.7702	4.9438
22.920	110.00	92.7701	4.9438
22.928	110.00	92.7701	4.9438
22.937	110.00	92.7701	4.9438
22.945	110.00	92.7701	4.9438
22.953	110.00	92.7701	4.9438
22.962	110.00	92.7701	4.9438
22.970	110.00	92.7702	4.9438
22.978	110.00	92.7701	4.9438
22.987	110.00	92.7701	4.9438
22.995	110.00	92.7701	4.9438
23.003	110.00	92.7702	4.9438
23.012	110.00	92.7703	4.9438
23.020	110.00	92.7704	4.9438
23.028	110.00	92.7705	4.9438
23.037	110.00	92.7704	4.9438
23.045	110.00	92.7705	4.9438
23.053	110.00	92.7706	4.9438
23.062	110.00	92.7706	4.9438
23.070	110.00	92.7706	4.9438
23.078	110.00	92.7707	4.9438
23.087	110.00	92.7707	4.9438
23.095	110.00	92.7706	4.9438
23.103	110.00	92.7706	4.9438
23.112	110.00	92.7707	4.9438
23.120	110.00	92.7708	4.9438
23.128	110.00	92.7709	4.9438
23.137	110.00	92.7708	4.9438
23.145	110.00	92.7707	4.9438
23.153	110.00	92.7709	4.9438
23.162	110.00	92.7708	4.9438
23.170	110.00	92.7707	4.9438
23.178	110.00	92.7707	4.9438
23.187	110.00	92.7706	4.9438
23.195	110.00	92.7705	4.9438
23.203	110.00	92.7706	4.9438
23.212	110.00	92.7705	4.9438
23.220	110.00	92.7705	4.9438
23.228	110.00	92.7704	4.9438
23.237	110.00	92.7704	4.9438
23.245	110.00	92.7704	4.9438
23.253	110.00	92.7703	4.9438
23.262	110.00	92.7702	4.9438
23.270	110.00	92.7700	4.9438
23.278	110.00	92.7700	4.9438
23.287	110.00	92.7701	4.9438
23.295	110.00	92.7704	4.9438
23.303	110.00	92.7705	4.9438
23.312	110.00	92.7705	4.9438
23.320	110.00	92.7705	4.9438
23.328	110.00	92.7705	4.9438
23.337	110.00	92.7703	4.9438
23.345	110.00	92.7703	4.9438
23.353	110.00	92.7703	4.9438
23.362	110.00	92.7703	4.9438
23.370	110.00	92.7703	4.9438
23.378	110.00	92.7703	4.9438
23.387	110.00	92.7702	4.9438
23.395	110.00	92.7702	4.9438
23.403	110.00	92.7703	4.9438
23.412	110.00	92.7703	4.9438
23.420	110.00	92.7701	4.9438
23.428	110.00	92.7700	4.9438
23.437	110.00	92.7702	4.9438
23.445	110.00	92.7706	4.9438
23.453	110.00	92.7707	4.9438
23.462	110.00	92.7710	4.9438
23.470	110.00	92.7709	4.9438
23.478	110.00	92.7707	4.9438
23.487	110.00	92.7707	4.9438
23.495	110.00	92.7706	4.9438
23.503	110.00	92.7705	4.9438
23.512	110.00	92.7705	4.9438
23.520	110.00	92.7705	4.9438
23.528	110.00	92.7705	4.9438
23.537	110.00	92.7704	4.9438
23.545	110.00	92.7704	4.9438
23.553	110.00	92.7703	4.9438
23.562	110.00	92.7703	4.9438
23.570	110.00	92.7705	4.9438
23.578	110.00	92.7705	4.9438
23.587	110.00	92.7703	4.9438
23.595	110.00	92.7702	4.9438
23.603	110.00	92.7702	4.9438
23.612	110.00	92.7702	4.9438
23.620	110.00	92.7702	4.9438
23.628	110.00	92.7703	4.9438
23.637	110.00	92.7704	4.9438
23.645	110.00	92.7705	4.9438
23.653	110.00	92.7704	4.9438
23.662	110.00	92.7704	4.9438
23.670	110.00	92.7704	4.9438
23.678	110.00	92.7703	4.9438
23.687	110.00	92.7702	4.9438
23.695	110.00	92.7702	4.9438
23.703	110.00	92.7700	4.9438
23.712	110.00	92.7700	4.9438
23.720	110.00	92.7701	4.9438
23.728	110.00	92.7703	4.9438
23.737	110.00	92.7702	4.9438
23.745	110.00	92.7703	4.9438
23.753	110.00	92.7702	4.9438
23.762	110.00	92.7702	4.9438
23.770	110.00	92.7702	4.9438
23.778	110.00	92.7704	4.9438
23.787	110.00	92.7704	4.9438
23.795	110.00	92.7703	4.9438
23.803	110.00	92.7704	4.9438
23.812	110.00	92.7705	4.9438
23.820	110.00	92.7705	4.9438
23.828	110.00	92.7706	4.9438
23.837	110.00	92.7705	4.9438
23.845	110.00	92.7705	4.9438
23.853	110.00	92.7705	4.9438
23.862	110.00	92.7705	4.9438
23.870	110.00	92.7706	4.9438
23.878	110.00	92.7706	4.9438
23.887	110.00	92.7705	4.9438
23.895	110.00	92.7705	4.9438
23.903	110.00	92.7705	4.9438
23.912	110.00	92.7705	4.9438
23.920	110.00	92.7705	4.9438
23.928	110.00	92.7706	4.9438
23.937	110.00	92.7708	4.9438
23.945	110.00	92.7710	4.9438
23.953	110.00	92.7708	4.9438
23.962	110.00	92.7706	4.9438
23.970	110.00	92.7706	4.9438
23.978	110.00	92.7707	4.9438
23.987	110.00	92.7705	4.9438
23.995	110.00	92.7704	4.9438
24.003	110.00	92.7706	4.9438
24.012	110.00	92.7710	4.9438
24.020	110.00	92.7712	4.9439
24.028	110.00	92.7714	4.9439
24.037	110.00	92.7714	4.9439
24.045	110.00	92.7715	4.9439
24.053	110.00	92.7719	4.9439
24.062	110.00	92.7717	4.9439
24.070	110.00	92.7715	4.9439
24.078	110.00	92.7713	4.9439
24.087	110.00	92.7714	4.9439
24.095	110.00	92.7714	4.9439
24.103	110.00	92.7715	4.9439
24.112	110.00	92.7715	4.9439
24.120	110.00	92.7712	4.9439
24.128	110.00	92.7712	4.9439
24.137	110.00	92.7711	4.9439
24.145	110.00	92.7712	4.9439
24.153	110.00	92.7713	4.9439
24.162	110.00	92.7710	4.9438
24.170	110.00	92.7709	4.9438
24.178	110.00	92.7709	4.9438
24.187	110.00	92.7709	4.9438
24.195	110.00	92.7708	4.9438
24.203	110.00	92.7708	4.9438
24.212	110.00	92.7708	4.9438
24.220	110.00	92.7708	4.9438
24.228	110.00	92.7708	4.9438
24.237	110.00	92.7708	4.9438
24.245	110.00	92.7708	4.9438
24.253	110.00	92.7708	4.9438
24.262	110.00	92.7708	4.9438
24.270	110.00	92.7707	4.9438
24.278	110.00	92.7707	4.9438
24.287	110.00	92.7706	4.9438
24.295	110.00	92.7706	4.9438
24.303	110.01	92.7707	4.9438
24.312	110.01	92.7707	4.9438
24.320	110.01	92.7710	4.9438
24.328	110.01	92.7710	4.9438
24.337	110.01	92.7708	4.9438
24.345	110.01	92.7707	4.9438
24.353	110.01	92.7710	4.9438
24.362	110.01	92.7713	4.9439
24.370	110.01	92.7712	4.9439
24.378	110.01	92.7710	4.9438
24.387	110.01	92.7709	4.9438
24.395	110.01	92.7708	4.9438
24.403	110.01	92.7708	4.9438
24.412	110.01	92.7708	4.9438
24.420	110.01	92.7708	4.9438
24.428	110.01	92.7707	4.9438
24.437	110.01	92.7706	4.9438
24.445	110.01	92.7705	4.9438
24.453	110.01	92.7706	4.9438
24.462	110.01	92.7707	4.9438
24.470	110.01	92.7707	4.9438
24.478	110.01	92.7706	4.9438
24.487	110.01	92.7707	4.9438
24.495	110.01	92.7706	4.9438
24.503	110.01	92.7706	4.9438
24.512	110.01	92.7707	4.9438
24.520	110.01	92.7707	4.9438
24.528	110.01	92.7707	4.9438
24.537	110.01	92.7704	4.9438
24.545	110.01	92.7705	4.9438
24.553	110.01	92.7706	4.9438
24.562	110.01	92.7704	4.9438
24.570	110.01	92.7704	4.9438
24.578	110.01	92.7704	4.9438
24.587	110.01	92.7704	4.9438
24.595	110.01	92.7703	4.9438
24.603	110.01	92.7702	4.9438
24.612	110.01	92.7704	4.9438
24.620	110.01	92.7705	4.9438
24.628	110.01	92.7705	4.9438
24.637	110.01	92.7704	4.9438
24.645	110.01	92.7703	4.9438
24.653	110.01	92.7703	4.9438
24.662	110.01	92.7702	4.9438
24.670	110.01	92.7705	4.9438
24.678	110.01	92.7705	4.9438
24.687	110.01	92.7704	4.9438
24.695	110.00	92.7703	4.9438
24.703	110.00	92.7703	4.9438
24.712	110.00	92.7703	4.9438
24.720	110.00	92.7703	4.9438
24.728	110.00	92.7703	4.9438
24.737	110.00	92.7703	4.9438
24.745	110.00	92.7703	4.9438
24.753	110.00	92.7703	4.9438
24.762	110.00	92.7703	4.9438
24.770	110.00	92.7703	4.9438
24.778	110.00	92.7704	4.9438
24.787	110.00	92.7705	4.9438
24.795	110.00	92.7704	4.9438
24.803	110.00	92.7703	4.9438
24.812	110.00	92.7704	4.9438
24.820	110.00	92.7704	4.9438
24.828	110.00	92.7707	4.9438
24.837	110.00	92.7708	4.9438
24.845	110.00	92.7708	4.9438
24.853	110.00	92.7709	4.9438
24.862	110.00	92.7708	4.9438
24.870	110.00	92.7707	4.9438
24.878	110.00	92.7708	4.9438
24.887	110.00	92.7709	4.9438
24.895	110.00	92.7708	4.9438
24.903	110.00	92.7706	4.9438
24.912	110.00	92.7706	4.9438
24.920	110.00	92.7706	4.9438
24.928	110.00	92.7708	4.9438
24.937	110.00	92.7708	4.9438
24.945	110.00	92.7708	4.9438
24.953	110.00	92.7710	4.9438
24.962	110.00	92.7709	4.9438
24.970	110.00	92.7708	4.9438
24.978	110.00	92.7707	4.9438
24.987	110.00	92.7706	4.9438
24.995	110.00	92.7705	4.9438
25.003	110.00	92.7706	4.9438
25.012	110.00	92.7710	4.9438
25.020	110.00	92.7712	4.9439
25.028	110.00	92.7712	4.9439
25.037	110.00	92.7712	4.9439
25.045	110.00	92.7710	4.9438
25.053	110.00	92.7709	4.9438
25.062	110.00	92.7708	4.9438
25.070	110.00	92.7708	4.9438
25.078	110.00	92.7707	4.9438
25.087	110.00	92.7707	4.9438
25.095	110.00	92.7706	4.9438
25.103	110.00	92.7706	4.9438
25.112	110.00	92.7708	4.9438
25.120	110.00	92.7711	4.9439
25.128	110.00	92.7710	4.9438
25.137	110.00	92.7709	4.9438
25.145	110.00	92.7709	4.9438
25.153	110.00	92.7709	4.9438
25.162	110.00	92.7708	4.9438
25.170	110.00	92.7708	4.9438
25.178	110.00	92.7708	4.9438
25.187	110.00	92.7709	4.9438
25.195	110.01	92.7709	4.9438
25.203	110.01	92.7708	4.9438
25.212	110.01	92.7708	4.9438
25.220	110.01	92.7708	4.9438
25.228	110.01	92.7708	4.9438
25.237	110.01	92.7707	4.9438
25.245	110.01	92.7709	4.9438
25.253	110.01	92.7710	4.9438
25.262	110.01	92.7708	4.9438
25.270	110.01	92.7708	4.9438
25.278	110.01	92.7708	4.9438
25.287	110.01	92.7710	4.9438
25.295	110.01	92.7711	4.9439
25.303	110.01	92.7710	4.9438
25.312	110.01	92.7712	4.9439
25.320	110.01	92.7711	4.9439
25.328	110.01	92.7710	4.9438
25.337	110.01	92.7710	4.9438
25.345	110.01	92.7709	4.9438
25.353	110.01	92.7710	4.9438
25.362	110.01	92.7711	4.9439
25.370	110.01	92.7710	4.9438
25.378	110.01	92.7710	4.9438
25.387	110.01	92.7710	4.9438
25.395	110.01	92.7709	4.9438
25.403	110.01	92.7708	4.9438
25.412	110.01	92.7707	4.9438
25.420	110.01	92.7707	4.9438
25.428	110.01	92.7708	4.9438
25.437	110.01	92.7709	4.9438
25.445	110.01	92.7709	4.9438
25.453	110.01	92.7710	4.9438
25.462	110.01	92.7710	4.9438
25.470	110.01	92.7709	4.9438
25.478	110.01	92.7709	4.9438
25.487	110.01	92.7710	4.9438
25.495	110.01	92.7712	4.9439
25.503	110.01	92.7714	4.9439
25.512	110.01	92.7714	4.9439
25.520	110.01	92.7715	4.9439
25.528	110.01	92.7715	4.9439
25.537	110.01	92.7714	4.9439
25.545	110.01	92.7712	4.9439
25.553	110.01	92.7713	4.9439
25.562	110.01	92.7714	4.9439
25.570	110.01	92.7714	4.9439
25.578	110.01	92.7714	4.9439
25.587	110.01	92.7712	4.9439
25.595	110.01	92.7713	4.9439
25.603	110.01	92.7712	4.9439
25.612	110.01	92.7712	4.9439
25.620	110.01	92.7711	4.9439
25.628	110.01	92.7711	4.9439
25.637	110.01	92.7712	4.9439
25.645	110.01	92.7712	4.9439
25.653	110.01	92.7713	4.9439
25.662	110.01	92.7714	4.9439
25.670	110.01	92.7713	4.9439
25.678	110.01	92.7712	4.9439
25.687	110.01	92.7712	4.9439
25.695	110.01	92.7712	4.9439
25.703	110.01	92.7710	4.9438
25.712	110.01	92.7710	4.9438
25.720	110.01	92.7713	4.9439
25.728	110.01	92.7713	4.9439
25.737	110.01	92.7711	4.9439
25.745	110.01	92.7711	4.9439
25.753	110.00	92.7710	4.9438
25.762	110.00	92.7710	4.9438
25.770	110.00	92.7712	4.9439
25.778	110.00	92.7713	4.9439
25.787	110.00	92.7713	4.9439
25.795	110.00	92.7712	4.9439
25.803	110.00	92.7712	4.9439
25.812	110.00	92.7711	4.9439
25.820	110.00	92.7711	4.9439
25.828	110.00	92.7711	4.9439
25.837	110.00	92.7712	4.9439
25.845	110.00	92.7713	4.9439
25.853	110.00	92.7713	4.9439
25.862	110.00	92.7713	4.9439
25.870	110.00	92.7713	4.9439
25.878	110.00	92.7717	4.9439
25.887	110.00	92.7719	4.9439
25.895	110.00	92.7720	4.9439
25.903	110.00	92.7721	4.9439
25.912	110.00	92.7721	4.9439
25.920	110.00	92.7721	4.9439
25.928	110.00	92.7720	4.9439
25.937	110.00	92.7720	4.9439
25.945	110.00	92.7721	4.9439
25.953	110.00	92.7720	4.9439
25.962	110.00	92.7722	4.9439
25.970	110.00	92.7723	4.9439
25.978	110.00	92.7723	4.9439
25.987	110.00	92.7722	4.9439
25.995	110.00	92.7722	4.9439
26.003	110.00	92.7722	4.9439
26.012	110.00	92.7723	4.9439
26.020	110.00	92.7724	4.9439
26.028	110.00	92.7722	4.9439
26.037	110.00	92.7721	4.9439
26.045	110.00	92.7721	4.9439
26.053	110.00	92.7721	4.9439
26.062	110.00	92.7722	4.9439
26.070	110.00	92.7724	4.9439
26.078	110.00	92.7722	4.9439
26.087	110.00	92.7720	4.9439
26.095	110.00	92.7722	4.9439
26.103	110.00	92.7723	4.9439
26.112	110.00	92.7721	4.9439
26.120	110.00	92.7721	4.9439
26.128	110.00	92.7721	4.9439
26.137	110.00	92.7723	4.9439
26.145	110.00	92.7724	4.9439
26.153	110.00	92.7722	4.9439
26.162	110.00	92.7721	4.9439
26.170	110.00	92.7720	4.9439
26.178	109.99	92.7719	4.9439
26.187	109.99	92.7719	4.9439
26.195	109.99	92.7719	4.9439
26.203	109.99	92.7720	4.9439
26.212	109.99	92.7721	4.9439
26.220	109.99	92.7720	4.9439
26.228	109.99	92.7719	4.9439
26.237	109.99	92.7718	4.9439
26.245	109.99	92.7719	4.9439
26.253	109.99	92.7719	4.9439
26.262	109.99	92.7720	4.9439
26.270	109.99	92.7720	4.9439
26.278	109.99	92.7720	4.9439
26.287	109.99	92.7721	4.9439
26.295	109.99	92.7722	4.9439
26.303	109.99	92.7722	4.9439
26.312	109.99	92.7722	4.9439
26.320	109.99	92.7721	4.9439
26.328	109.99	92.7720	4.9439
26.337	109.99	92.7720	4.9439
26.345	109.99	92.7721	4.9439
26.353	109.99	92.7724	4.9439
26.362	109.99	92.7723	4.9439
26.370	109.99	92.7723	4.9439
26.378	109.99	92.7722	4.9439
26.387	109.99	92.7721	4.9439
26.395	109.99	92.7722	4.9439
26.403	109.99	92.7721	4.9439
26.412	109.99	92.7721	4.9439
26.420	109.99	92.7722	4.9439
26.428	109.99	92.7722	4.9439
26.437	109.99	92.7723	4.9439
26.445	109.99	92.7722	4.9439
26.453	109.99	92.7720	4.9439
26.462	109.99	92.7719	4.9439
26.470	109.99	92.7718	4.9439
26.478	109.99	92.7720	4.9439
26.487	109.99	92.7722	4.9439
26.495	109.99	92.7721	4.9439
26.503	109.99	92.7719	4.9439
26.512	109.99	92.7718	4.9439
26.520	109.99	92.7717	4.9439
26.528	109.99	92.7716	4.9439
26.537	109.99	92.7713	4.9439
26.545	109.99	92.7712	4.9439
26.553	109.99	92.7710	4.9438
26.562	109.99	92.7708	4.9438
26.570	110.00	92.7707	4.9438
26.578	110.00	92.7707	4.9438
26.587	110.00	92.7706	4.9438
26.595	110.00	92.7705	4.9438
26.603	110.00	92.7705	4.9438
26.612	110.00	92.7705	4.9438
26.620	110.00	92.7705	4.9438
26.628	110.00	92.7707	4.9438
26.637	110.00	92.7709	4.9438
26.645	110.00	92.7708	4.9438
26.653	110.00	92.7708	4.9438
26.662	110.00	92.7710	4.9438
26.670	110.00	92.7712	4.9439
26.678	110.00	92.7712	4.9439
26.687	110.00	92.7709	4.9438
26.695	110.00	92.7708	4.9438
26.703	110.00	92.7706	4.9438
26.712	110.00	92.7704	4.9438
26.720	110.00	92.7704	4.9438
26.728	110.00	92.7706	4.9438
26.737	110.00	92.7706	4.9438
26.745	110.00	92.7706	4.9438
26.753	110.00	92.7706	4.9438
26.762	110.00	92.7706	4.9438
26.770	110.00	92.7706	4.9438
26.778	110.00	92.7706	4.9438
26.787	110.00	92.7707	4.9438
26.795	110.00	92.7706	4.9438
26.803	110.00	92.7706	4.9438
26.812	110.00	92.7706	4.9438
26.820	110.00	92.7707	4.9438
26.828	110.00	92.7708	4.9438
26.837	110.00	92.7706	4.9438
26.845	110.00	92.7704	4.9438
26.853	110.00	92.7703	4.9438
26.862	110.00	92.7705	4.9438
26.870	110.00	92.7707	4.9438
26.878	110.00	92.7708	4.9438
26.887	110.00	92.7707	4.9438
26.895	110.00	92.7707	4.9438
26.903	110.00	92.7706	4.9438
26.912	110.00	92.7708	4.9438
26.920	110.00	92.7708	4.9438
26.928	110.00	92.7707	4.9438
26.937	110.00	92.7709	4.9438
26.945	110.00	92.7709	4.9438
26.953	110.00	92.7710	4.9438
26.962	110.00	92.7710	4.9438
26.970	110.00	92.7710	4.9438
26.978	110.00	92.7711	4.9439
26.987	110.00	92.7711	4.9439
26.995	110.00	92.7711	4.9439
27.003	110.00	92.7712	4.9439
27.012	110.00	92.7713	4.9439
27.020	110.00	92.7712	4.9439
27.028	110.00	92.7711	4.9439
27.037	110.00	92.7712	4.9439
27.045	110.00	92.7713	4.9439
27.053	110.00	92.7711	4.9439
27.062	110.00	92.7712	4.9439
27.070	110.00	92.7712	4.9439
27.078	110.00	92.7712	4.9439
27.087	110.00	92.7710	4.9438
27.095	110.00	92.7709	4.9438
27.103	110.01	92.7708	4.9438
27.112	110.01	92.7708	4.9438
27.120	110.01	92.7709	4.9438
27.128	110.01	92.7709	4.9438
27.137	110.01	92.7708	4.9438
27.145	110.01	92.7708	4.9438
27.153	110.01	92.7707	4.9438
27.162	110.01	92.7707	4.9438
27.170	110.01	92.7707	4.9438
27.178	110.01	92.7708	4.9438
27.187	110.01	92.7708	4.9438
27.195	110.01	92.7708	4.9438
27.203	110.01	92.7709	4.9438
27.212	110.01	92.7708	4.9438
27.220	110.01	92.7708	4.9438
27.228	110.01	92.7709	4.9438
27.237	110.00	92.7711	4.9439
27.245	110.00	92.7710	4.9438
27.253	110.00	92.7709	4.9438
27.262	110.00	92.7709	4.9438
27.270	110.00	92.7711	4.9439
27.278	110.00	92.7711	4.9439
27.287	110.00	92.7712	4.9439
27.295	110.00	92.7712	4.9439
27.303	110.00	92.7711	4.9439
27.312	110.00	92.7711	4.9439
27.320	110.00	92.7712	4.9439
27.328	110.00	92.7713	4.9439
27.337	110.00	92.7714	4.9439
27.345	110.00	92.7715	4.9439
27.353	110.01	92.7716	4.9439
27.362	110.01	92.7716	4.9439
27.370	110.01	92.7718	4.9439
27.378	110.01	92.7719	4.9439
27.387	110.01	92.7719	4.9439
27.395	110.01	92.7720	4.9439
27.403	110.01	92.7720	4.9439
27.412	110.01	92.7719	4.9439
27.420	110.01	92.7719	4.9439
27.428	110.01	92.7720	4.9439
27.437	110.01	92.7722	4.9439
27.445	110.01	92.7725	4.9439
27.453	110.01	92.7724	4.9439
27.462	110.01	92.7721	4.9439
27.470	110.01	92.7720	4.9439
27.478	110.01	92.7721	4.9439
27.487	110.01	92.7722	4.9439
27.495	110.01	92.7722	4.9439
27.503	110.01	92.7721	4.9439
27.512	110.01	92.7720	4.9439
27.520	110.01	92.7721	4.9439
27.528	110.01	92.7722	4.9439
27.537	110.01	92.7723	4.9439
27.545	110.01	92.7722	4.9439
27.553	110.01	92.7722	4.9439
27.562	110.01	92.7721	4.9439
27.570	110.01	92.7721	4.9439
27.578	110.01	92.7721	4.9439
27.587	110.01	92.7721	4.9439
27.595	110.01	92.7724	4.9439
27.603	110.01	92.7722	4.9439
27.612	110.01	92.7719	4.9439
27.620	110.01	92.7718	4.9439
27.628	110.01	92.7717	4.9439
27.637	110.01	92.7717	4.9439
27.645	110.01	92.7717	4.9439
27.653	110.01	92.7717	4.9439
27.662	110.01	92.7715	4.9439
27.670	110.01	92.7715	4.9439
27.678	110.01	92.7715	4.9439
27.687	110.01	92.7716	4.9439
27.695	110.01	92.7717	4.9439
27.703	110.01	92.7719	4.9439
27.712	110.01	92.7719	4.9439
27.720	110.01	92.7718	4.9439
27.728	110.01	92.7718	4.9439
27.737	110.01	92.7717	4.9439
27.745	110.01	92.7715	4.9439
27.753	110.01	92.7715	4.9439
27.762	110.01	92.7716	4.9439
27.770	110.01	92.7717	4.9439
27.778	110.01	92.7716	4.9439
27.787	110.01	92.7716	4.9439
27.795	110.01	92.7717	4.9439
27.803	110.01	92.7716	4.9439
27.812	110.01	92.7716	4.9439
27.820	110.01	92.7718	4.9439
27.828	110.01	92.7718	4.9439
27.837	110.01	92.7717	4.9439
27.845	110.01	92.7715	4.9439
27.853	110.01	92.7715	4.9439
27.862	110.01	92.7717	4.9439
27.870	110.01	92.7715	4.9439
27.878	110.01	92.7714	4.9439
27.887	110.01	92.7713	4.9439
27.895	110.01	92.7714	4.9439
27.903	110.01	92.7715	4.9439
27.912	110.01	92.7716	4.9439
27.920	110.01	92.7716	4.9439
27.928	110.01	92.7717	4.9439
27.937	110.01	92.7718	4.9439
27.945	110.01	92.7717	4.9439
27.953	110.01	92.7717	4.9439
27.962	110.01	92.7717	4.9439
27.970	110.01	92.7716	4.9439
27.978	110.01	92.7716	4.9439
27.987	110.01	92.7716	4.9439
27.995	110.01	92.7716	4.9439
28.003	110.01	92.7720	4.9439
28.012	110.01	92.7722	4.9439
28.020	110.01	92.7724	4.9439
28.028	110.01	92.7724	4.9439
28.037	110.01	92.7723	4.9439
28.045	110.01	92.7722	4.9439
28.053	110.01	92.7721	4.9439
28.062	110.01	92.7720	4.9439
28.070	110.01	92.7720	4.9439
28.078	110.01	92.7722	4.9439
28.087	110.01	92.7721	4.9439
28.095	110.01	92.7720	4.9439
28.103	110.01	92.7718	4.9439
28.112	110.01	92.7714	4.9439
28.120	110.01	92.7712	4.9439
28.128	110.01	92.7709	4.9438
28.137	110.01	92.7708	4.9438
28.145	110.01	92.7709	4.9438
28.153	110.01	92.7710	4.9438
28.162	110.01	92.7712	4.9439
28.170	110.01	92.7712	4.9439
28.178	110.01	92.7712	4.9439
28.187	110.01	92.7712	4.9439
28.195	110.01	92.7712	4.9439
28.203	110.01	92.7712	4.9439
28.212	110.01	92.7712	4.9439
28.220	110.01	92.7711	4.9439
28.228	110.01	92.7711	4.9439
28.237	110.01	92.7711	4.9439
28.245	110.01	92.7711	4.9439
28.253	110.01	92.7711	4.9439
28.262	110.01	92.7713	4.9439
28.270	110.01	92.7716	4.9439
28.278	110.01	92.7715	4.9439
28.287	110.01	92.7713	4.9439
28.295	110.01	92.7714	4.9439
28.303	110.01	92.7713	4.9439
28.312	110.01	92.7712	4.9439
28.320	110.01	92.7711	4.9439
28.328	110.01	92.7711	4.9439
28.337	110.01	92.7710	4.9438
28.345	110.01	92.7710	4.9438
28.353	110.01	92.7710	4.9438
28.362	110.01	92.7710	4.9438
28.370	110.01	92.7710	4.9438
28.378	110.01	92.7710	4.9438
28.387	110.01	92.7709	4.9438
28.395	110.01	92.7711	4.9439
28.403	110.01	92.7715	4.9439
28.412	110.01	92.7716	4.9439
28.420	110.00	92.7712	4.9439
28.428	110.00	92.7711	4.9439
28.437	110.00	92.7710	4.9438
28.445	110.00	92.7709	4.9438
28.453	110.00	92.7711	4.9439
28.462	110.00	92.7715	4.9439
28.470	110.00	92.7713	4.9439
28.478	110.00	92.7709	4.9438
28.487	110.00	92.7708	4.9438
28.495	110.00	92.7708	4.9438
28.503	110.00	92.7708	4.9438
28.512	110.00	92.7708	4.9438
28.520	110.00	92.7708	4.9438
28.528	110.00	92.7708	4.9438
28.537	110.00	92.7711	4.9439
28.545	110.00	92.7713	4.9439
28.553	110.00	92.7714	4.9439
28.562	110.00	92.7714	4.9439
28.570	110.00	92.7713	4.9439
28.578	110.00	92.7715	4.9439
28.587	110.00	92.7718	4.9439
28.595	110.00	92.7718	4.9439
28.603	110.00	92.7718	4.9439
28.612	110.00	92.7717	4.9439
28.620	110.00	92.7718	4.9439
28.628	110.00	92.7718	4.9439
28.637	110.00	92.7719	4.9439
28.645	110.00	92.7720	4.9439
28.653	110.00	92.7719	4.9439
28.662	110.00	92.7719	4.9439
28.670	110.00	92.7720	4.9439
28.678	110.00	92.7721	4.9439
28.687	110.00	92.7722	4.9439
28.695	110.00	92.7722	4.9439
28.703	110.00	92.7724	4.9439
28.712	110.00	92.7723	4.9439
28.720	110.00	92.7727	4.9439
28.728	110.00	92.7728	4.9439
28.737	110.00	92.7727	4.9439
28.745	110.00	92.7726	4.9439
28.753	110.00	92.7725	4.9439
28.762	110.00	92.7725	4.9439
28.770	110.00	92.7725	4.9439
28.778	110.00	92.7724	4.9439
28.787	110.00	92.7725	4.9439
28.795	110.00	92.7724	4.9439
28.803	110.00	92.7723	4.9439
28.812	110.00	92.7723	4.9439
28.820	110.00	92.7725	4.9439
28.828	110.00	92.7726	4.9439
28.837	110.00	92.7726	4.9439
28.845	110.00	92.7725	4.9439
28.853	110.00	92.7724	4.9439
28.862	110.00	92.7723	4.9439
28.870	110.00	92.7724	4.9439
28.878	110.00	92.7724	4.9439
28.887	110.00	92.7723	4.9439
28.895	110.00	92.7721	4.9439
28.903	110.00	92.7721	4.9439
28.912	110.00	92.7720	4.9439
28.920	110.00	92.7723	4.9439
28.928	110.00	92.7724	4.9439
28.937	110.00	92.7723	4.9439
28.945	110.00	92.7721	4.9439
28.953	110.00	92.7719	4.9439
28.962	110.00	92.7719	4.9439
28.970	110.00	92.7719	4.9439
28.978	110.00	92.7719	4.9439
28.987	110.00	92.7719	4.9439
28.995	110.00	92.7721	4.9439
29.003	110.00	92.7721	4.9439
29.012	110.00	92.7723	4.9439
29.020	110.00	92.7724	4.9439
29.028	110.00	92.7725	4.9439
29.037	110.00	92.7724	4.9439
29.045	110.00	92.7724	4.9439
29.053	110.00	92.7724	4.9439
29.062	110.00	92.7724	4.9439
29.070	110.00	92.7724	4.9439
29.078	110.00	92.7722	4.9439
29.087	110.00	92.7723	4.9439
29.095	110.00	92.7725	4.9439
29.103	110.00	92.7724	4.9439
29.112	110.00	92.7724	4.9439
29.120	110.00	92.7723	4.9439
29.128	110.00	92.7722	4.9439
29.137	110.00	92.7722	4.9439
29.145	110.00	92.7722	4.9439
29.153	110.00	92.7723	4.9439
29.162	110.00	92.7723	4.9439
29.170	110.00	92.7722	4.9439
29.178	110.00	92.7722	4.9439
29.187	110.00	92.7723	4.9439
29.195	110.00	92.7722	4.9439
29.203	110.00	92.7722	4.9439
29.212	110.00	92.7723	4.9439
29.220	110.00	92.7722	4.9439
29.228	110.00	92.7721	4.9439
29.237	110.00	92.7721	4.9439
29.245	110.00	92.7720	4.9439
29.253	110.00	92.7721	4.9439
29.262	110.00	92.7721	4.9439
29.270	110.00	92.7719	4.9439
29.278	110.00	92.7719	4.9439
29.287	110.00	92.7719	4.9439
29.295	110.00	92.7720	4.9439
29.303	110.00	92.7721	4.9439
29.312	110.00	92.7720	4.9439
29.320	110.00	92.7719	4.9439
29.328	110.00	92.7720	4.9439
29.337	110.00	92.7722	4.9439
29.345	110.00	92.7721	4.9439
29.353	110.00	92.7721	4.9439
29.362	110.00	92.7720	4.9439
29.370	110.00	92.7719	4.9439
29.378	110.00	92.7718	4.9439
29.387	110.00	92.7719	4.9439
29.395	110.00	92.7719	4.9439
29.403	110.00	92.7717	4.9439
29.412	110.00	92.7717	4.9439
29.420	110.00	92.7716	4.9439
29.428	110.00	92.7717	4.9439
29.437	110.00	92.7717	4.9439
29.445	110.00	92.7716	4.9439
29.453	110.00	92.7716	4.9439
29.462	110.00	92.7715	4.9439
29.470	110.00	92.7714	4.9439
29.478	110.00	92.7716	4.9439
29.487	110.00	92.7716	4.9439
29.495	110.00	92.7719	4.9439
29.503	110.00	92.7720	4.9439
29.512	110.00	92.7722	4.9439
29.520	110.00	92.7719	4.9439
29.528	110.00	92.7718	4.9439
29.537	110.00	92.7719	4.9439
29.545	110.00	92.7719	4.9439
29.553	110.00	92.7720	4.9439
29.562	110.00	92.7721	4.9439
29.570	110.00	92.7722	4.9439
29.578	110.00	92.7723	4.9439
29.587	110.00	92.7724	4.9439
29.595	110.00	92.7726	4.9439
29.603	110.00	92.7725	4.9439
29.612	110.00	92.7723	4.9439
29.620	110.00	92.7722	4.9439
29.628	110.00	92.7722	4.9439
29.637	110.00	92.7722	4.9439
29.645	110.00	92.7724	4.9439
29.653	110.00	92.7722	4.9439
29.662	110.00	92.7721	4.9439
29.670	110.00	92.7721	4.9439
29.678	110.00	92.7720	4.9439
29.687	110.00	92.7722	4.9439
29.695	110.00	92.7724	4.9439
29.703	110.00	92.7725	4.9439
29.712	110.00	92.7725	4.9439
29.720	110.00	92.7723	4.9439
29.728	110.00	92.7723	4.9439
29.737	110.00	92.7725	4.9439
29.745	110.00	92.7727	4.9439
29.753	110.00	92.7726	4.9439
29.762	110.00	92.7725	4.9439
29.770	110.00	92.7725	4.9439
29.778	110.00	92.7724	4.9439
29.787	110.00	92.7724	4.9439
29.795	110.00	92.7725	4.9439
29.803	110.00	92.7722	4.9439
29.812	110.00	92.7721	4.9439
29.820	110.00	92.7721	4.9439
29.828	110.00	92.7720	4.9439
29.837	110.00	92.7721	4.9439
29.845	110.00	92.7722	4.9439
29.853	110.00	92.7721	4.9439
29.862	110.00	92.7720	4.9439
29.870	110.00	92.7721	4.9439
29.878	110.00	92.7720	4.9439
29.887	110.00	92.7720	4.9439
29.895	110.00	92.7721	4.9439
29.903	110.00	92.7722	4.9439
29.912	110.00	92.7724	4.9439
29.920	110.00	92.7725	4.9439
29.928	110.00	92.7725	4.9439
29.937	110.00	92.7726	4.9439
29.945	110.00	92.7727	4.9439
29.953	110.00	92.7728	4.9439
29.962	110.00	92.7727	4.9439
29.970	110.00	92.7725	4.9439
29.978	110.00	92.7726	4.9439
29.987	110.00	92.7727	4.9439
29.995	110.00	92.7727	4.9439
30.003	110.00	92.7726	4.9439
30.012	110.00	92.7726	4.9439
30.020	110.00	92.7725	4.9439
30.028	110.00	92.7725	4.9439
30.037	110.00	92.7724	4.9439
30.045	110.00	92.7725	4.9439
30.053	110.00	92.7726	4.9439
30.062	110.00	92.7726	4.9439
30.070	110.00	92.7725	4.9439
30.078	110.00	92.7726	4.9439
30.087	110.00	92.7726	4.9439
30.095	110.00	92.7727	4.9439
30.103	110.00	92.7729	4.9440
30.112	110.00	92.7729	4.9439
30.120	110.00	92.7728	4.9439
30.128	110.00	92.7727	4.9439
30.137	110.00	92.7726	4.9439
30.145	110.00	92.7725	4.9439
30.153	110.00	92.7725	4.9439
30.162	110.00	92.7725	4.9439
30.170	110.00	92.7724	4.9439
30.178	110.00	92.7724	4.9439
30.187	110.00	92.7724	4.9439
30.195	110.00	92.7724	4.9439
30.203	110.00	92.7725	4.9439
30.212	110.00	92.7723	4.9439
30.220	110.00	92.7724	4.9439
30.228	110.00	92.7727	4.9439
30.237	110.00	92.7730	4.9440
30.245	110.00	92.7733	4.9440
30.253	110.00	92.7733	4.9440
30.262	110.00	92.7732	4.9440
30.270	110.00	92.7732	4.9440
30.278	110.00	92.7732	4.9440
30.287	110.00	92.7729	4.9440
30.295	110.00	92.7725	4.9439
30.303	110.00	92.7723	4.9439
30.312	110.00	92.7722	4.9439
30.320	110.00	92.7723	4.9439
30.328	110.00	92.7724	4.9439
30.337	110.00	92.7725	4.9439
30.345	110.00	92.7723	4.9439
30.353	110.00	92.7721	4.9439
30.362	110.00	92.7720	4.9439
30.370	110.00	92.7718	4.9439
30.378	110.00	92.7717	4.9439
30.387	110.00	92.7718	4.9439
30.395	110.00	92.7719	4.9439
30.403	110.00	92.7718	4.9439
30.412	110.00	92.7717	4.9439
30.420	110.00	92.7719	4.9439
30.428	110.00	92.7718	4.9439
30.437	110.00	92.7718	4.9439
30.445	110.00	92.7718	4.9439
30.453	110.00	92.7719	4.9439
30.462	110.00	92.7719	4.9439
30.470	110.00	92.7721	4.9439
30.478	110.00	92.7723	4.9439
30.487	110.00	92.7722	4.9439
30.495	110.00	92.7720	4.9439
30.503	110.00	92.7721	4.9439
30.512	110.00	92.7721	4.9439
30.520	110.00	92.7720	4.9439
30.528	110.00	92.7720	4.9439
30.537	110.00	92.7718	4.9439
30.545	110.00	92.7718	4.9439
30.553	110.00	92.7719	4.9439
30.562	110.00	92.7720	4.9439
30.570	110.00	92.7722	4.9439
30.578	110.00	92.7724	4.9439
30.587	110.00	92.7725	4.9439
30.595	110.00	92.7725	4.9439
30.603	110.00	92.7725	4.9439
30.612	110.00	92.7724	4.9439
30.620	110.00	92.7724	4.9439
30.628	110.00	92.7724	4.9439
30.637	110.00	92.7724	4.9439
30.645	110.00	92.7723	4.9439
30.653	110.00	92.7723	4.9439
30.662	110.00	92.7722	4.9439
30.670	110.00	92.7722	4.9439
30.678	110.00	92.7724	4.9439
30.687	110.00	92.7725	4.9439
30.695	110.00	92.7727	4.9439
30.703	110.00	92.7726	4.9439
30.712	110.00	92.7726	4.9439
30.720	110.00	92.7726	4.9439
30.728	110.00	92.7726	4.9439
30.737	110.00	92.7727	4.9439
30.745	110.00	92.7726	4.9439
30.753	110.00	92.7726	4.9439
30.762	110.00	92.7725	4.9439
30.770	110.00	92.7725	4.9439
30.778	110.00	92.7726	4.9439
30.787	110.00	92.7726	4.9439
30.795	110.00	92.7728	4.9439
30.803	110.00	92.7727	4.9439
30.812	110.00	92.7728	4.9439
30.820	110.00	92.7727	4.9439
30.828	110.00	92.7727	4.9439
30.837	110.00	92.7729	4.9439
30.845	110.00	92.7729	4.9439
30.853	110.00	92.7727	4.9439
30.862	110.00	92.7727	4.9439
30.870	110.00	92.7726	4.9439
30.878	110.00	92.7727	4.9439
30.887	110.00	92.7726	4.9439
30.895	110.00	92.7725	4.9439
30.903	110.00	92.7726	4.9439
30.912	110.00	92.7725	4.9439
30.920	110.00	92.7726	4.9439
30.928	110.00	92.7725	4.9439
30.937	110.00	92.7725	4.9439
30.945	110.00	92.7725	4.9439
30.953	110.00	92.7725	4.9439
30.962	110.00	92.7726	4.9439
30.970	110.00	92.7726	4.9439
30.978	110.00	92.7727	4.9439
30.987	110.00	92.7726	4.9439
30.995	110.00	92.7727	4.9439
31.003	110.00	92.7730	4.9440
31.012	110.00	92.7730	4.9440
31.020	110.00	92.7729	4.9439
31.028	110.00	92.7730	4.9440
31.037	110.00	92.7728	4.9439
31.045	110.00	92.7727	4.9439
31.053	110.00	92.7727	4.9439
31.062	110.00	92.7725	4.9439
31.070	110.00	92.7725	4.9439
31.078	110.00	92.7728	4.9439
31.087	110.00	92.7730	4.9440
31.095	110.00	92.7730	4.9440
31.103	110.00	92.7725	4.9439
31.112	110.00	92.7724	4.9439
31.120	110.00	92.7724	4.9439
31.128	110.00	92.7724	4.9439
31.137	110.00	92.7724	4.9439
31.145	110.00	92.7722	4.9439
31.153	110.00	92.7721	4.9439
31.162	110.00	92.7721	4.9439
31.170	110.00	92.7721	4.9439
31.178	110.00	92.7721	4.9439
31.187	110.00	92.7721	4.9439
31.195	110.00	92.7722	4.9439
31.203	110.00	92.7722	4.9439
31.212	110.00	92.7724	4.9439
31.220	110.00	92.7724	4.9439
31.228	110.00	92.7724	4.9439
31.237	110.00	92.7726	4.9439
31.245	110.00	92.7724	4.9439
31.253	110.00	92.7724	4.9439
31.262	110.00	92.7725	4.9439
31.270	110.00	92.7725	4.9439
31.278	110.00	92.7725	4.9439
31.287	110.00	92.7724	4.9439
31.295	110.00	92.7724	4.9439
31.303	110.00	92.7724	4.9439
31.312	110.00	92.7723	4.9439
31.320	110.00	92.7724	4.9439
31.328	110.00	92.7724	4.9439
31.337	110.00	92.7725	4.9439
31.345	110.00	92.7726	4.9439
31.353	110.00	92.7725	4.9439
31.362	110.00	92.7725	4.9439
31.370	110.00	92.7725	4.9439
31.378	110.00	92.7726	4.9439
31.387	110.00	92.7727	4.9439
31.395	110.00	92.7728	4.9439
31.403	110.00	92.7728	4.9439
31.412	110.00	92.7727	4.9439
31.420	110.00	92.7726	4.9439
31.428	110.00	92.7725	4.9439
31.437	110.00	92.7723	4.9439
31.445	110.00	92.7722	4.9439
31.453	110.00	92.7722	4.9439
31.462	110.00	92.7722	4.9439
31.470	110.01	92.7722	4.9439
31.478	110.01	92.7724	4.9439
31.487	110.01	92.7724	4.9439
31.495	110.01	92.7722	4.9439
31.503	110.01	92.7722	4.9439
31.512	110.01	92.7722	4.9439
31.520	110.01	92.7719	4.9439
31.528	110.01	92.7719	4.9439
31.537	110.01	92.7719	4.9439
31.545	110.01	92.7718	4.9439
31.553	110.01	92.7718	4.9439
31.562	110.01	92.7718	4.9439
31.570	110.01	92.7718	4.9439
31.578	110.01	92.7719	4.9439
31.587	110.01	92.7718	4.9439
31.595	110.01	92.7718	4.9439
31.603	110.01	92.7719	4.9439
31.612	110.01	92.7720	4.9439
31.620	110.01	92.7720	4.9439
31.628	110.01	92.7721	4.9439
31.637	110.01	92.7721	4.9439
31.645	110.01	92.7722	4.9439
31.653	110.01	92.7722	4.9439
31.662	110.01	92.7723	4.9439
31.670	110.01	92.7722	4.9439
31.678	110.01	92.7722	4.9439
31.687	110.01	92.7723	4.9439
31.695	110.01	92.7724	4.9439
31.703	110.01	92.7725	4.9439
31.712	110.00	92.7725	4.9439
31.720	110.00	92.7724	4.9439
31.728	110.00	92.7725	4.9439
31.737	110.00	92.7725	4.9439
31.745	110.00	92.7725	4.9439
31.753	110.00	92.7725	4.9439
31.762	110.00	92.7725	4.9439
31.770	110.00	92.7726	4.9439
31.778	110.00	92.7725	4.9439
31.787	110.00	92.7724	4.9439
31.795	110.00	92.7724	4.9439
31.803	110.00	92.7725	4.9439
31.812	110.00	92.7727	4.9439
31.820	110.00	92.7726	4.9439
31.828	110.00	92.7726	4.9439
31.837	110.00	92.7728	4.9439
31.845	110.00	92.7729	4.9439
31.853	110.00	92.7726	4.9439
31.862	110.00	92.7726	4.9439
31.870	110.00	92.7729	4.9439
31.878	110.00	92.7728	4.9439
31.887	110.00	92.7730	4.9440
31.895	110.00	92.7732	4.9440
31.903	110.00	92.7732	4.9440
31.912	110.00	92.7732	4.9440
31.920	110.00	92.7730	4.9440
31.928	110.00	92.7728	4.9439
31.937	110.00	92.7729	4.9439
31.945	110.00	92.7728	4.9439
31.953	110.00	92.7728	4.9439
31.962	110.00	92.7728	4.9439
31.970	109.99	92.7729	4.9440
31.978	109.99	92.7730	4.9440
31.987	109.99	92.7728	4.9439
31.995	109.99	92.7728	4.9439
32.003	109.99	92.7728	4.9439
32.012	109.99	92.7728	4.9439
32.020	109.99	92.7728	4.9439
32.028	109.99	92.7728	4.9439
32.037	109.99	92.7731	4.9440
32.045	109.99	92.7730	4.9440
32.053	109.99	92.7728	4.9439
32.062	109.99	92.7727	4.9439
32.070	109.99	92.7729	4.9439
32.078	109.99	92.7730	4.9440
32.087	109.99	92.7730	4.9440
32.095	109.99	92.7730	4.9440
32.103	109.99	92.7730	4.9440
32.112	109.99	92.7732	4.9440
32.120	109.99	92.7732	4.9440
32.128	109.99	92.7734	4.9440
32.137	109.99	92.7736	4.9440
32.145	109.99	92.7735	4.9440
32.153	109.99	92.7733	4.9440
32.162	109.99	92.7734	4.9440
32.170	109.99	92.7734	4.9440
32.178	109.99	92.7733	4.9440
32.187	109.99	92.7734	4.9440
32.195	109.99	92.7735	4.9440
32.203	109.99	92.7735	4.9440
32.212	109.99	92.7736	4.9440
32.220	109.99	92.7736	4.9440
32.228	109.99	92.7735	4.9440
32.237	109.99	92.7735	4.9440
32.245	109.99	92.7734	4.9440
32.253	109.99	92.7733	4.9440
32.262	109.99	92.7732	4.9440
32.270	109.99	92.7731	4.9440
32.278	109.99	92.7730	4.9440
32.287	109.99	92.7730	4.9440
32.295	109.99	92.7732	4.9440
32.303	109.99	92.7732	4.9440
32.312	109.99	92.7732	4.9440
32.320	109.99	92.7734	4.9440
32.328	109.99	92.7734	4.9440
32.337	109.99	92.7734	4.9440
32.345	109.99	92.7735	4.9440
32.353	109.99	92.7736	4.9440
32.362	109.99	92.7739	4.9440
32.370	109.99	92.7738	4.9440
32.378	110.00	92.7737	4.9440
32.387	110.00	92.7736	4.9440
32.395	110.00	92.7736	4.9440
32.403	110.00	92.7736	4.9440
32.412	110.00	92.7735	4.9440
32.420	110.00	92.7738	4.9440
32.428	110.00	92.7741	4.9440
32.437	110.00	92.7741	4.9440
32.445	110.00	92.7740	4.9440
32.453	110.00	92.7737	4.9440
32.462	110.00	92.7737	4.9440
32.470	110.00	92.7737	4.9440
32.478	110.00	92.7737	4.9440
32.487	110.00	92.7737	4.9440
32.495	110.00	92.7737	4.9440
32.503	110.00	92.7737	4.9440
32.512	110.00	92.7736	4.9440
32.520	110.00	92.7735	4.9440
32.528	110.00	92.7734	4.9440
32.537	110.00	92.7734	4.9440
32.545	110.00	92.7737	4.9440
32.553	110.00	92.7738	4.9440
32.562	110.00	92.7736	4.9440
32.570	110.00	92.7738	4.9440
32.578	110.00	92.7739	4.9440
32.587	110.00	92.7737	4.9440
32.595	110.00	92.7737	4.9440
32.603	110.00	92.7736	4.9440
32.612	110.00	92.7738	4.9440
32.620	110.00	92.7739	4.9440
32.628	110.00	92.7740	4.9440
32.637	110.00	92.7741	4.9440
32.645	110.00	92.7737	4.9440
32.653	110.00	92.7735	4.9440
32.662	110.00	92.7734	4.9440
32.670	110.00	92.7735	4.9440
32.678	110.00	92.7735	4.9440
32.687	110.00	92.7735	4.9440
32.695	110.00	92.7736	4.9440
32.703	110.00	92.7735	4.9440
32.712	110.00	92.7735	4.9440
32.720	110.00	92.7735	4.9440
32.728	110.00	92.7735	4.9440
32.737	110.00	92.7735	4.9440
32.745	110.00	92.7736	4.9440
32.753	110.00	92.7735	4.9440
32.762	110.00	92.7735	4.9440
32.770	110.00	92.7733	4.9440
32.778	110.00	92.7732	4.9440
32.787	110.00	92.7732	4.9440
32.795	110.00	92.7733	4.9440
32.803	110.00	92.7734	4.9440
32.812	110.00	92.7734	4.9440
32.820	110.00	92.7733	4.9440
32.828	110.00	92.7731	4.9440
32.837	110.00	92.7731	4.9440
32.845	110.00	92.7733	4.9440
32.853	110.00	92.7732	4.9440
32.862	110.00	92.7730	4.9440
32.870	110.00	92.7732	4.9440
32.878	110.00	92.7731	4.9440
32.887	110.00	92.7730	4.9440
32.895	110.00	92.7730	4.9440
32.903	110.00	92.7731	4.9440
32.912	110.00	92.7731	4.9440
32.920	110.00	92.7730	4.9440
32.928	110.00	92.7730	4.9440
32.937	110.00	92.7730	4.9440
32.945	110.00	92.7732	4.9440
32.953	110.00	92.7731	4.9440
32.962	110.00	92.7731	4.9440
32.970	110.00	92.7731	4.9440
32.978	110.00	92.7731	4.9440
32.987	110.00	92.7730	4.9440
32.995	110.00	92.7730	4.9440
33.003	110.00	92.7730	4.9440
33.012	110.00	92.7730	4.9440
33.020	110.00	92.7730	4.9440
33.028	110.00	92.7730	4.9440
33.037	110.00	92.7732	4.9440
33.045	110.00	92.7733	4.9440
33.053	110.00	92.7732	4.9440
33.062	110.00	92.7732	4.9440
33.070	110.00	92.7733	4.9440
33.078	110.00	92.7733	4.9440
33.087	110.00	92.7733	4.9440
33.095	110.00	92.7732	4.9440
33.103	110.00	92.7732	4.9440
33.112	110.00	92.7732	4.9440
33.120	110.00	92.7733	4.9440
33.128	110.00	92.7733	4.9440
33.137	110.00	92.7733	4.9440
33.145	110.00	92.7734	4.9440
33.153	110.00	92.7732	4.9440
33.162	110.00	92.7731	4.9440
33.170	110.00	92.7732	4.9440
33.178	110.00	92.7733	4.9440
33.187	110.00	92.7733	4.9440
33.195	110.00	92.7732	4.9440
33.203	110.01	92.7732	4.9440
33.212	110.01	92.7732	4.9440
33.220	110.01	92.7733	4.9440
33.228	110.01	92.7734	4.9440
33.237	110.01	92.7734	4.9440
33.245	110.01	92.7734	4.9440
33.253	110.01	92.7733	4.9440
33.262	110.01	92.7731	4.9440
33.270	110.01	92.7730	4.9440
33.278	110.01	92.7732	4.9440
33.287	110.01	92.7732	4.9440
33.295	110.01	92.7731	4.9440
33.303	110.01	92.7730	4.9440
33.312	110.01	92.7728	4.9439
33.320	110.01	92.7727	4.9439
33.328	110.01	92.7727	4.9439
33.337	110.01	92.7728	4.9439
33.345	110.01	92.7731	4.9440
33.353	110.01	92.7732	4.9440
33.362	110.01	92.7731	4.9440
33.370	110.01	92.7732	4.9440
33.378	110.01	92.7733	4.9440
33.387	110.01	92.7733	4.9440
33.395	110.01	92.7730	4.9440
33.403	110.01	92.7728	4.9439
33.412	110.01	92.7728	4.9439
33.420	110.01	92.7727	4.9439
33.428	110.01	92.7728	4.9439
33.437	110.01	92.7729	4.9439
33.445	110.01	92.7728	4.9439
33.453	110.01	92.7727	4.9439
33.462	110.01	92.7728	4.9439
33.470	110.01	92.7726	4.9439
33.478	110.01	92.7726	4.9439
33.487	110.01	92.7728	4.9439
33.495	110.01	92.7729	4.9440
33.503	110.01	92.7729	4.9439
33.512	110.01	92.7729	4.9439
33.520	110.01	92.7731	4.9440
33.528	110.01	92.7734	4.9440
33.537	110.01	92.7735	4.9440
33.545	110.01	92.7735	4.9440
33.553	110.01	92.7735	4.9440
33.562	110.01	92.7735	4.9440
33.570	110.01	92.7736	4.9440
33.578	110.01	92.7737	4.9440
33.587	110.01	92.7738	4.9440
33.595	110.00	92.7740	4.9440
33.603	110.00	92.7741	4.9440
33.612	110.00	92.7741	4.9440
33.620	110.00	92.7739	4.9440
33.628	110.00	92.7739	4.9440
33.637	110.00	92.7740	4.9440
33.645	110.00	92.7740	4.9440
33.653	110.00	92.7740	4.9440
33.662	110.00	92.7739	4.9440
33.670	110.00	92.7737	4.9440
33.678	110.00	92.7736	4.9440
33.687	110.00	92.7736	4.9440
33.695	110.00	92.7737	4.9440
33.703	110.00	92.7739	4.9440
33.712	110.00	92.7738	4.9440
33.720	110.00	92.7739	4.9440
33.728	110.00	92.7739	4.9440
33.737	110.00	92.7740	4.9440
33.745	110.00	92.7741	4.9440
33.753	110.00	92.7741	4.9440
33.762	110.00	92.7741	4.9440
33.770	110.00	92.7742	4.9440
33.778	110.00	92.7742	4.9440
33.787	110.00	92.7741	4.9440
33.795	110.00	92.7741	4.9440
33.803	110.00	92.7742	4.9440
33.812	110.00	92.7743	4.9440
33.820	110.00	92.7744	4.9440
33.828	110.00	92.7745	4.9440
33.837	110.00	92.7744	4.9440
33.845	110.00	92.7742	4.9440
33.853	110.00	92.7743	4.9440
33.862	110.00	92.7745	4.9440
33.870	110.00	92.7745	4.9440
33.878	110.00	92.7744	4.9440
33.887	110.00	92.7744	4.9440
33.895	110.00	92.7746	4.9440
33.903	110.00	92.7746	4.9440
33.912	110.00	92.7745	4.9440
33.920	110.00	92.7746	4.9440
33.928	110.00	92.7746	4.9440
33.937	110.00	92.7747	4.9440
33.945	110.00	92.7749	4.9441
33.953	110.00	92.7749	4.9441
33.962	110.00	92.7749	4.9441
33.970	110.00	92.7749	4.9441
33.978	110.00	92.7749	4.9441
33.987	109.99	92.7750	4.9441
33.995	109.99	92.7749	4.9441
34.003	109.99	92.7750	4.9441
34.012	109.99	92.7749	4.9441
34.020	109.99	92.7748	4.9441
34.028	109.99	92.7749	4.9441
34.037	109.99	92.7749	4.9441
34.045	109.99	92.7748	4.9441
34.053	109.99	92.7746	4.9440
34.062	109.99	92.7747	4.9440
34.070	109.99	92.7747	4.9440
34.078	109.99	92.7749	4.9441
34.087	109.99	92.7748	4.9441
34.095	109.99	92.7748	4.9440
34.103	109.99	92.7747	4.9440
34.112	109.99	92.7748	4.9440
34.120	109.99	92.7748	4.9441
34.128	109.99	92.7748	4.9441
34.137	109.99	92.7748	4.9440
34.145	109.99	92.7747	4.9440
34.153	109.99	92.7747	4.9440
34.162	109.99	92.7749	4.9441
34.170	109.99	92.7750	4.9441
34.178	109.99	92.7752	4.9441
34.187	109.99	92.7753	4.9441
34.195	109.99	92.7754	4.9441
34.203	109.99	92.7755	4.9441
34.212	109.99	92.7755	4.9441
34.220	109.99	92.7753	4.9441
34.228	109.99	92.7752	4.9441
34.237	109.99	92.7753	4.9441
34.245	109.99	92.7753	4.9441
34.253	109.99	92.7752	4.9441
34.262	109.99	92.7752	4.9441
34.270	109.99	92.7752	4.9441
34.278	109.99	92.7752	4.9441
34.287	109.99	92.7751	4.9441
34.295	109.99	92.7751	4.9441
34.303	109.99	92.7750	4.9441
34.312	109.99	92.7751	4.9441
34.320	109.99	92.7751	4.9441
34.328	109.99	92.7750	4.9441
34.337	109.99	92.7748	4.9440
34.345	109.99	92.7748	4.9441
34.353	109.99	92.7748	4.9440
34.362	109.99	92.7747	4.9440
34.370	110.00	92.7746	4.9440
34.378	110.00	92.7745	4.9440
34.387	110.00	92.7744	4.9440
34.395	110.00	92.7742	4.9440
34.403	110.00	92.7741	4.9440
34.412	110.00	92.7741	4.9440
34.420	110.00	92.7741	4.9440
34.428	110.00	92.7740	4.9440
34.437	110.00	92.7741	4.9440
34.445	110.00	92.7741	4.9440
34.453	110.00	92.7740	4.9440
34.462	110.00	92.7738	4.9440
34.470	110.00	92.7738	4.9440
34.478	110.00	92.7737	4.9440
34.487	110.00	92.7737	4.9440
34.495	110.00	92.7738	4.9440
34.503	110.00	92.7738	4.9440
34.512	110.00	92.7739	4.9440
34.520	110.00	92.7739	4.9440
34.528	110.00	92.7737	4.9440
34.537	110.00	92.7736	4.9440
34.545	110.00	92.7735	4.9440
34.553	110.00	92.7736	4.9440
34.562	110.00	92.7739	4.9440
34.570	110.00	92.7738	4.9440
34.578	110.00	92.7737	4.9440
34.587	110.00	92.7737	4.9440
34.595	110.00	92.7737	4.9440
34.603	110.00	92.7737	4.9440
34.612	110.00	92.7737	4.9440
34.620	110.00	92.7738	4.9440
34.628	110.00	92.7736	4.9440
34.637	110.00	92.7739	4.9440
34.645	110.00	92.7739	4.9440
34.653	110.00	92.7738	4.9440
34.662	110.00	92.7739	4.9440
34.670	110.00	92.7741	4.9440
34.678	110.00	92.7740	4.9440
34.687	110.00	92.7738	4.9440
34.695	110.00	92.7736	4.9440
34.703	110.00	92.7737	4.9440
34.712	110.00	92.7736	4.9440
34.720	110.00	92.7736	4.9440
34.728	110.00	92.7735	4.9440
34.737	110.00	92.7735	4.9440
34.745	110.00	92.7735	4.9440
34.753	110.00	92.7736	4.9440
34.762	110.00	92.7736	4.9440
34.770	110.00	92.7736	4.9440
34.778	110.00	92.7736	4.9440
34.787	110.00	92.7737	4.9440
34.795	110.00	92.7737	4.9440
34.803	110.00	92.7738	4.9440
34.812	110.00	92.7737	4.9440
34.820	110.00	92.7738	4.9440
34.828	110.00	92.7738	4.9440
34.837	110.00	92.7737	4.9440
34.845	110.00	92.7738	4.9440
34.853	110.00	92.7739	4.9440
34.862	110.00	92.7740	4.9440
34.870	110.00	92.7740	4.9440
34.878	110.00	92.7738	4.9440
34.887	110.00	92.7737	4.9440
34.895	110.00	92.7736	4.9440
34.903	110.00	92.7736	4.9440
34.912	110.00	92.7735	4.9440
34.920	110.00	92.7734	4.9440
34.928	110.00	92.7735	4.9440
34.937	110.00	92.7735	4.9440
34.945	110.00	92.7736	4.9440
34.953	110.00	92.7736	4.9440
34.962	110.00	92.7736	4.9440
34.970	110.01	92.7734	4.9440
34.978	110.01	92.7734	4.9440
34.987	110.01	92.7734	4.9440
34.995	110.01	92.7735	4.9440
35.003	110.01	92.7738	4.9440
35.012	110.01	92.7738	4.9440
35.020	110.01	92.7737	4.9440
35.028	110.01	92.7738	4.9440
35.037	110.01	92.7741	4.9440
35.045	110.01	92.7742	4.9440
35.053	110.01	92.7743	4.9440
35.062	110.01	92.7741	4.9440
35.070	110.01	92.7740	4.9440
35.078	110.01	92.7742	4.9440
35.087	110.01	92.7744	4.9440
35.095	110.01	92.7745	4.9440
35.103	110.01	92.7741	4.9440
35.112	110.01	92.7737	4.9440
35.120	110.01	92.7735	4.9440
35.128	110.01	92.7736	4.9440
35.137	110.01	92.7737	4.9440
35.145	110.01	92.7738	4.9440
35.153	110.01	92.7738	4.9440
35.162	110.01	92.7736	4.9440
35.170	110.01	92.7737	4.9440
35.178	110.01	92.7737	4.9440
35.187	110.01	92.7737	4.9440
35.195	110.01	92.7736	4.9440
35.203	110.01	92.7736	4.9440
35.212	110.01	92.7735	4.9440
35.220	110.01	92.7734	4.9440
35.228	110.01	92.7734	4.9440
35.237	110.01	92.7735	4.9440
35.245	110.01	92.7736	4.9440
35.253	110.01	92.7736	4.9440
35.262	110.01	92.7735	4.9440
35.270	110.01	92.7735	4.9440
35.278	110.01	92.7736	4.9440
35.287	110.01	92.7738	4.9440
35.295	110.01	92.7738	4.9440
35.303	110.01	92.7737	4.9440
35.312	110.01	92.7737	4.9440
35.320	110.01	92.7738	4.9440
35.328	110.01	92.7738	4.9440
35.337	110.01	92.7738	4.9440
35.345	110.01	92.7738	4.9440
35.353	110.01	92.7737	4.9440
35.362	110.01	92.7737	4.9440
35.370	110.01	92.7738	4.9440
35.378	110.01	92.7738	4.9440
35.387	110.01	92.7737	4.9440
35.395	110.01	92.7736	4.9440
35.403	110.00	92.7737	4.9440
35.412	110.00	92.7738	4.9440
35.420	110.00	92.7737	4.9440
35.428	110.00	92.7735	4.9440
35.437	110.00	92.7736	4.9440
35.445	110.00	92.7737	4.9440
35.453	110.00	92.7736	4.9440
35.462	110.00	92.7735	4.9440
35.470	110.00	92.7735	4.9440
35.478	110.00	92.7736	4.9440
35.487	110.00	92.7735	4.9440
35.495	110.00	92.7736	4.9440
35.503	110.00	92.7736	4.9440
35.512	110.00	92.7736	4.9440
35.520	110.00	92.7737	4.9440
35.528	110.00	92.7737	4.9440
35.537	110.00	92.7737	4.9440
35.545	110.00	92.7740	4.9440
35.553	110.00	92.7739	4.9440
35.562	110.00	92.7737	4.9440
35.570	109.99	92.7735	4.9440
35.578	109.99	92.7737	4.9440
35.587	109.99	92.7738	4.9440
35.595	109.99	92.7737	4.9440
35.603	109.99	92.7738	4.9440
35.612	109.99	92.7740	4.9440
35.620	109.99	92.7741	4.9440
35.628	109.99	92.7740	4.9440
35.637	109.99	92.7740	4.9440
35.645	109.99	92.7739	4.9440
35.653	109.99	92.7738	4.9440
35.662	109.99	92.7738	4.9440
35.670	109.99	92.7738	4.9440
35.678	109.99	92.7737	4.9440
35.687	109.99	92.7737	4.9440
35.695	109.99	92.7736	4.9440
35.703	109.99	92.7735	4.9440
35.712	109.99	92.7735	4.9440
35.720	109.99	92.7734	4.9440
35.728	109.99	92.7733	4.9440
35.737	109.99	92.7734	4.9440
35.745	109.99	92.7734	4.9440
35.753	109.99	92.7732	4.9440
35.762	109.99	92.7732	4.9440
35.770	109.99	92.7731	4.9440
35.778	109.99	92.7731	4.9440
35.787	109.99	92.7730	4.9440
35.795	109.99	92.7731	4.9440
35.803	109.99	92.7733	4.9440
35.812	109.99	92.7734	4.9440
35.820	109.99	92.7736	4.9440
35.828	109.99	92.7736	4.9440
35.837	109.99	92.7734	4.9440
35.845	109.99	92.7732	4.9440
35.853	109.99	92.7731	4.9440
35.862	109.99	92.7732	4.9440
35.870	109.99	92.7732	4.9440
35.878	109.99	92.7733	4.9440
35.887	109.99	92.7733	4.9440
35.895	109.99	92.7734	4.9440
35.903	109.99	92.7733	4.9440
35.912	109.99	92.7733	4.9440
35.920	109.99	92.7733	4.9440
35.928	109.99	92.7733	4.9440
35.937	109.99	92.7734	4.9440
35.945	109.99	92.7736	4.9440
35.953	109.99	92.7737	4.9440
35.962	109.99	92.7736	4.9440
35.970	109.99	92.7736	4.9440
35.978	109.99	92.7734	4.9440
35.987	110.00	92.7734	4.9440
35.995	110.00	92.7733	4.9440
36.003	110.00	92.7733	4.9440
36.012	110.00	92.7732	4.9440
36.020	110.00	92.7732	4.9440
36.028	110.00	92.7732	4.9440
36.037	110.00	92.7731	4.9440
36.045	110.00	92.7732	4.9440
36.053	110.00	92.7732	4.9440
36.062	110.00	92.7732	4.9440
36.070	110.00	92.7730	4.9440
36.078	110.00	92.7729	4.9440
36.087	110.00	92.7730	4.9440
36.095	110.00	92.7730	4.9440
36.103	110.00	92.7732	4.9440
36.112	110.00	92.7732	4.9440
36.120	110.00	92.7731	4.9440
36.128	109.99	92.7730	4.9440
36.137	109.99	92.7730	4.9440
36.145	109.99	92.7730	4.9440
36.153	109.99	92.7731	4.9440
36.162	109.99	92.7732	4.9440
36.170	109.99	92.7732	4.9440
36.178	109.99	92.7731	4.9440
36.187	109.99	92.7731	4.9440
36.195	109.99	92.7733	4.9440
36.203	109.99	92.7737	4.9440
36.212	109.99	92.7737	4.9440
36.220	109.99	92.7735	4.9440
36.228	109.99	92.7733	4.9440
36.237	109.99	92.7732	4.9440
36.245	110.00	92.7732	4.9440
36.253	110.00	92.7732	4.9440
36.262	110.00	92.7732	4.9440
36.270	110.00	92.7733	4.9440
36.278	110.00	92.7733	4.9440
36.287	110.00	92.7733	4.9440
36.295	110.00	92.7732	4.9440
36.303	110.00	92.7730	4.9440
36.312	110.00	92.7730	4.9440
36.320	110.00	92.7729	4.9439
36.328	110.00	92.7729	4.9439
36.337	110.00	92.7728	4.9439
36.345	110.00	92.7728	4.9439
36.353	110.00	92.7728	4.9439
36.362	110.00	92.7728	4.9439
36.370	110.00	92.7727	4.9439
36.378	110.00	92.7727	4.9439
36.387	110.00	92.7728	4.9439
36.395	110.00	92.7729	4.9439
36.403	110.00	92.7729	4.9439
36.412	110.00	92.7730	4.9440
36.420	110.00	92.7729	4.9439
36.428	110.00	92.7728	4.9439
36.437	110.00	92.7727	4.9439
36.445	110.00	92.7727	4.9439
36.453	110.00	92.7726	4.9439
36.462	110.00	92.7726	4.9439
36.470	110.00	92.7726	4.9439
36.478	110.00	92.7727	4.9439
36.487	110.00	92.7729	4.9439
36.495	110.00	92.7729	4.9439
36.503	110.00	92.7730	4.9440
36.512	110.00	92.7729	4.9439
36.520	110.00	92.7727	4.9439
36.528	110.00	92.7728	4.9439
36.537	110.00	92.7728	4.9439
36.545	110.00	92.7726	4.9439
36.553	110.00	92.7725	4.9439
36.562	110.00	92.7724	4.9439
36.570	110.00	92.7725	4.9439
36.578	110.00	92.7725	4.9439
36.587	110.00	92.7725	4.9439
36.595	110.00	92.7724	4.9439
36.603	110.00	92.7722	4.9439
36.612	109.99	92.7722	4.9439
36.620	109.99	92.7722	4.9439
36.628	109.99	92.7722	4.9439
36.637	109.99	92.7722	4.9439
36.645	109.99	92.7722	4.9439
36.653	110.00	92.7721	4.9439
36.662	110.00	92.7722	4.9439
36.670	110.00	92.7722	4.9439
36.678	110.00	92.7721	4.9439
36.687	110.00	92.7722	4.9439
36.695	110.00	92.7722	4.9439
36.703	110.00	92.7723	4.9439
36.712	110.00	92.7723	4.9439
36.720	110.00	92.7724	4.9439
36.728	110.00	92.7723	4.9439
36.737	110.00	92.7723	4.9439
36.745	110.00	92.7723	4.9439
36.753	110.00	92.7724	4.9439
36.762	110.00	92.7725	4.9439
36.770	110.00	92.7726	4.9439
36.778	110.00	92.7728	4.9439
36.787	110.00	92.7729	4.9439
36.795	110.00	92.7730	4.9440
36.803	110.00	92.7730	4.9440
36.812	110.00	92.7729	4.9439
36.820	110.00	92.7728	4.9439
36.828	110.00	92.7727	4.9439
36.837	110.00	92.7729	4.9439
36.845	110.00	92.7730	4.9440
36.853	110.00	92.7729	4.9439
36.862	110.00	92.7727	4.9439
36.870	110.00	92.7727	4.9439
36.878	110.00	92.7728	4.9439
36.887	110.00	92.7729	4.9440
36.895	110.00	92.7731	4.9440
36.903	110.00	92.7733	4.9440
36.912	110.00	92.7734	4.9440
36.920	110.00	92.7734	4.9440
36.928	110.00	92.7734	4.9440
36.937	110.00	92.7733	4.9440
36.945	110.00	92.7734	4.9440
36.953	110.00	92.7733	4.9440
36.962	110.00	92.7731	4.9440
36.970	110.00	92.7730	4.9440
36.978	110.00	92.7729	4.9440
36.987	110.00	92.7730	4.9440
36.995	110.00	92.7730	4.9440
37.003	110.00	92.7730	4.9440
37.012	110.00	92.7729	4.9440
37.020	110.00	92.7729	4.9439
37.028	110.00	92.7727	4.9439
37.037	110.00	92.7727	4.9439
37.045	110.00	92.7729	4.9439
37.053	110.00	92.7729	4.9439
37.062	110.00	92.7728	4.9439
37.070	110.00	92.7728	4.9439
37.078	110.00	92.7728	4.9439
37.087	110.00	92.7729	4.9439
37.095	110.01	92.7732	4.9440
37.103	110.01	92.7731	4.9440
37.112	110.01	92.7729	4.9439
37.120	110.01	92.7728	4.9439
37.128	110.01	92.7728	4.9439
37.137	110.01	92.7728	4.9439
37.145	110.01	92.7728	4.9439
37.153	110.01	92.7728	4.9439
37.162	110.01	92.7728	4.9439
37.170	110.01	92.7728	4.9439
37.178	110.01	92.7728	4.9439
37.187	110.01	92.7729	4.9440
37.195	110.01	92.7730	4.9440
37.203	110.01	92.7729	4.9439
37.212	110.01	92.7730	4.9440
37.220	110.01	92.7730	4.9440
37.228	110.01	92.7730	4.9440
37.237	110.01	92.7730	4.9440
37.245	110.01	92.7729	4.9439
37.253	110.01	92.7729	4.9439
37.262	110.01	92.7728	4.9439
37.270	110.01	92.7726	4.9439
37.278	110.01	92.7726	4.9439
37.287	110.01	92.7726	4.9439
37.295	110.01	92.7729	4.9439
37.303	110.01	92.7730	4.9440
37.312	110.01	92.7729	4.9439
37.320	110.01	92.7727	4.9439
37.328	110.01	92.7727	4.9439
37.337	110.01	92.7729	4.9439
37.345	110.01	92.7730	4.9440
37.353	110.01	92.7730	4.9440
37.362	110.01	92.7731	4.9440
37.370	110.01	92.7734	4.9440
37.378	110.01	92.7734	4.9440
37.387	110.01	92.7732	4.9440
37.395	110.01	92.7730	4.9440
37.403	110.01	92.7729	4.9439
37.412	110.01	92.7727	4.9439
37.420	110.01	92.7729	4.9439
37.428	110.01	92.7731	4.9440
37.437	110.01	92.7731	4.9440
37.445	110.01	92.7731	4.9440
37.453	110.01	92.7730	4.9440
37.462	110.01	92.7728	4.9439
37.470	110.01	92.7727	4.9439
37.478	110.01	92.7726	4.9439
37.487	110.01	92.7726	4.9439
37.495	110.01	92.7726	4.9439
37.503	110.01	92.7727	4.9439
37.512	110.01	92.7728	4.9439
37.520	110.01	92.7731	4.9440
37.528	110.01	92.7732	4.9440
37.537	110.01	92.7730	4.9440
37.545	110.01	92.7729	4.9439
37.553	110.01	92.7729	4.9439
37.562	110.01	92.7729	4.9439
37.570	110.01	92.7731	4.9440
37.578	110.01	92.7735	4.9440
37.587	110.01	92.7732	4.9440
37.595	110.01	92.7729	4.9439
37.603	110.01	92.7727	4.9439
37.612	110.01	92.7726	4.9439
37.620	110.01	92.7727	4.9439
37.628	110.01	92.7727	4.9439
37.637	110.01	92.7728	4.9439
37.645	110.01	92.7728	4.9439
37.653	110.01	92.7727	4.9439
37.662	110.01	92.7727	4.9439
37.670	110.01	92.7728	4.9439
37.678	110.01	92.7728	4.9439
37.687	110.01	92.7728	4.9439
37.695	110.01	92.7727	4.9439
37.703	110.01	92.7726	4.9439
37.712	110.01	92.7725	4.9439
37.720	110.01	92.7725	4.9439
37.728	110.01	92.7726	4.9439
37.737	110.01	92.7726	4.9439
37.745	110.01	92.7726	4.9439
37.753	110.01	92.7727	4.9439
37.762	110.01	92.7727	4.9439
37.770	110.01	92.7728	4.9439
37.778	110.01	92.7728	4.9439
37.787	110.01	92.7727	4.9439
37.795	110.01	92.7726	4.9439
37.803	110.01	92.7726	4.9439
37.812	110.01	92.7725	4.9439
37.820	110.01	92.7726	4.9439
37.828	110.01	92.7727	4.9439
37.837	110.01	92.7727	4.9439
37.845	110.01	92.7728	4.9439
37.853	110.01	92.7727	4.9439
37.862	110.01	92.7727	4.9439
37.870	110.01	92.7727	4.9439
37.878	110.01	92.7727	4.9439
37.887	110.00	92.7727	4.9439
37.895	110.00	92.7727	4.9439
37.903	110.00	92.7726	4.9439
37.912	110.00	92.7727	4.9439
37.920	110.00	92.7728	4.9439
37.928	110.00	92.7727	4.9439
37.937	110.00	92.7727	4.9439
37.945	110.00	92.7727	4.9439
37.953	110.01	92.7727	4.9439
37.962	110.01	92.7730	4.9440
37.970	110.01	92.7731	4.9440
37.978	110.01	92.7730	4.9440
37.987	110.01	92.7730	4.9440
37.995	110.01	92.7729	4.9440
38.003	110.01	92.7731	4.9440
38.012	110.01	92.7732	4.9440
38.020	110.01	92.7731	4.9440
38.028	110.01	92.7730	4.9440
38.037	110.01	92.7731	4.9440
38.045	110.01	92.7732	4.9440
38.053	110.01	92.7730	4.9440
38.062	110.01	92.7730	4.9440
38.070	110.01	92.7729	4.9439
38.078	110.01	92.7730	4.9440
38.087	110.01	92.7732	4.9440
38.095	110.01	92.7731	4.9440
38.103	110.01	92.7731	4.9440
38.112	110.01	92.7732	4.9440
38.120	110.01	92.7732	4.9440
38.128	110.01	92.7732	4.9440
38.137	110.01	92.7734	4.9440
38.145	110.01	92.7737	4.9440
38.153	110.01	92.7737	4.9440
38.162	110.01	92.7737	4.9440
38.170	110.01	92.7738	4.9440
38.178	110.01	92.7738	4.9440
38.187	110.01	92.7737	4.9440
38.195	110.01	92.7738	4.9440
38.203	110.01	92.7737	4.9440
38.212	110.01	92.7736	4.9440
38.220	110.01	92.7735	4.9440
38.228	110.01	92.7736	4.9440
38.237	110.00	92.7736	4.9440
38.245	110.00	92.7737	4.9440
38.253	110.00	92.7738	4.9440
38.262	110.00	92.7737	4.9440
38.270	110.00	92.7736	4.9440
38.278	110.00	92.7735	4.9440
38.287	110.00	92.7734	4.9440
38.295	110.00	92.7733	4.9440
38.303	110.00	92.7732	4.9440
38.312	110.00	92.7732	4.9440
38.320	110.00	92.7731	4.9440
38.328	110.00	92.7732	4.9440
38.337	110.00	92.7733	4.9440
38.345	110.00	92.7733	4.9440
38.353	110.00	92.7733	4.9440
38.362	110.00	92.7733	4.9440
38.370	110.00	92.7733	4.9440
38.378	110.00	92.7732	4.9440
38.387	110.00	92.7733	4.9440
38.395	110.00	92.7733	4.9440
38.403	110.00	92.7732	4.9440
38.412	110.00	92.7734	4.9440
38.420	110.00	92.7735	4.9440
38.428	110.00	92.7733	4.9440
38.437	110.00	92.7733	4.9440
38.445	110.00	92.7733	4.9440
38.453	110.00	92.7733	4.9440
38.462	110.00	92.7734	4.9440
38.470	110.00	92.7734	4.9440
38.478	110.00	92.7734	4.9440
38.487	110.00	92.7734	4.9440
38.495	110.00	92.7732	4.9440
38.503	110.00	92.7733	4.9440
38.512	110.00	92.7738	4.9440
38.520	110.00	92.7738	4.9440
38.528	110.00	92.7736	4.9440
38.537	110.00	92.7736	4.9440
38.545	110.01	92.7737	4.9440
38.553	110.01	92.7740	4.9440
38.562	110.01	92.7738	4.9440
38.570	110.01	92.7735	4.9440
38.578	110.01	92.7735	4.9440
38.587	110.01	92.7736	4.9440
38.595	110.01	92.7735	4.9440
38.603	110.01	92.7733	4.9440
38.612	110.01	92.7732	4.9440
38.620	110.01	92.7734	4.9440
38.628	110.01	92.7735	4.9440
38.637	110.01	92.7735	4.9440
38.645	110.01	92.7734	4.9440
38.653	110.01	92.7734	4.9440
38.662	110.01	92.7734	4.9440
38.670	110.01	92.7733	4.9440
38.678	110.01	92.7733	4.9440
38.687	110.01	92.7733	4.9440
38.695	110.01	92.7733	4.9440
38.703	110.01	92.7734	4.9440
38.712	110.01	92.7734	4.9440
38.720	110.01	92.7732	4.9440
38.728	110.00	92.7731	4.9440
38.737	110.00	92.7730	4.9440
38.745	110.00	92.7731	4.9440
38.753	110.00	92.7730	4.9440
38.762	110.00	92.7731	4.9440
38.770	110.00	92.7733	4.9440

[step]
Ramp 100.00 °C/min to 950.00 °C
Time	Temperature	Weight	Weight
min	°C	%	mg
38.778	110.00	92.7735	4.9440
38.787	110.00	92.7735	4.9440
38.795	110.00	92.7735	4.9440
38.803	110.01	92.7736	4.9440
38.812	110.01	92.7740	4.9440
38.820	110.02	92.7745	4.9440
38.828	110.03	92.7751	4.9441
38.837	110.06	92.7761	4.9441
38.845	110.08	92.7774	4.9442
38.853	110.12	92.7789	4.9443
38.862	110.17	92.7807	4.9444
38.870	110.24	92.7829	4.9445
38.878	110.31	92.7852	4.9446
38.887	110.41	92.7874	4.9447
38.895	110.51	92.7898	4.9448
38.903	110.64	92.7920	4.9450
38.912	110.78	92.7943	4.9451
38.920	110.95	92.7970	4.9452
38.928	111.13	92.7995	4.9454
38.937	111.32	92.8017	4.9455
38.945	111.54	92.8040	4.9456
38.953	111.78	92.8064	4.9457
38.962	112.04	92.8085	4.9458
38.970	112.31	92.8105	4.9460
38.978	112.60	92.8126	4.9461
38.987	112.91	92.8146	4.9462
38.995	113.24	92.8164	4.9463
39.003	113.59	92.8183	4.9464
39.012	113.95	92.8199	4.9465
39.020	114.33	92.8215	4.9465
39.028	114.73	92.8230	4.9466
39.037	115.14	92.8242	4.9467
39.045	115.57	92.8253	4.9467
39.053	116.01	92.8264	4.9468
39.062	116.47	92.8275	4.9469
39.070	116.94	92.8286	4.9469
39.078	117.43	92.8294	4.9470
39.087	117.93	92.8301	4.9470
39.095	118.45	92.8310	4.9470
39.103	118.98	92.8317	4.9471
39.112	119.52	92.8326	4.9471
39.120	120.08	92.8333	4.9472
39.128	120.64	92.8338	4.9472
39.137	121.23	92.8345	4.9472
39.145	121.82	92.8353	4.9473
39.153	122.43	92.8362	4.9473
39.162	123.05	92.8367	4.9473
39.170	123.68	92.8369	4.9474
39.178	124.32	92.8370	4.9474
39.187	124.97	92.8371	4.9474
39.195	125.63	92.8370	4.9474
39.203	126.30	92.8373	4.9474
39.212	126.98	92.8373	4.9474
39.220	127.67	92.8370	4.9474
39.228	128.37	92.8369	4.9474
39.237	129.07	92.8369	4.9474
39.245	129.78	92.8367	4.9474
39.253	130.50	92.8363	4.9473
39.262	131.22	92.8359	4.9473
39.270	131.95	92.8356	4.9473
39.278	132.68	92.8352	4.9473
39.287	133.42	92.8349	4.9473
39.295	134.16	92.8343	4.9472
39.303	134.91	92.8334	4.9472
39.312	135.66	92.8329	4.9471
39.320	136.42	92.8322	4.9471
39.328	137.17	92.8316	4.9471
39.337	137.93	92.8311	4.9471
39.345	138.70	92.8307	4.9470
39.353	139.46	92.8299	4.9470
39.362	140.23	92.8292	4.9469
39.370	141.01	92.8285	4.9469
39.378	141.78	92.8279	4.9469
39.387	142.56	92.8270	4.9468
39.395	143.34	92.8264	4.9468
39.403	144.12	92.8262	4.9468
39.412	144.91	92.8258	4.9468
39.420	145.69	92.8251	4.9467
39.428	146.48	92.8243	4.9467
39.437	147.28	92.8237	4.9467
39.445	148.07	92.8232	4.9466
39.453	148.87	92.8227	4.9466
39.462	149.67	92.8224	4.9466
39.470	150.47	92.8219	4.9466
39.478	151.28	92.8211	4.9465
39.487	152.08	92.8203	4.9465
39.495	152.89	92.8198	4.9464
39.503	153.70	92.8194	4.9464
39.512	154.51	92.8190	4.9464
39.520	155.32	92.8183	4.9464
39.528	156.14	92.8176	4.9463
39.537	156.95	92.8171	4.9463
39.545	157.77	92.8166	4.9463
39.553	158.59	92.8158	4.9462
39.562	159.40	92.8151	4.9462
39.570	160.22	92.8146	4.9462
39.578	161.04	92.8141	4.9461
39.587	161.86	92.8134	4.9461
39.595	162.68	92.8130	4.9461
39.603	163.50	92.8122	4.9460
39.612	164.31	92.8114	4.9460
39.620	165.13	92.8108	4.9460
39.628	165.95	92.8102	4.9459
39.637	166.77	92.8095	4.9459
39.645	167.59	92.8088	4.9459
39.653	168.41	92.8081	4.9458
39.662	169.24	92.8075	4.9458
39.670	170.06	92.8071	4.9458
39.678	170.88	92.8065	4.9457
39.687	171.70	92.8056	4.9457
39.695	172.52	92.8049	4.9457
39.703	173.35	92.8044	4.9456
39.712	174.17	92.8039	4.9456
39.720	175.00	92.8036	4.9456
39.728	175.82	92.8029	4.9455
39.737	176.65	92.8023	4.9455
39.745	177.48	92.8016	4.9455
39.753	178.31	92.8011	4.9455
39.762	179.14	92.8007	4.9454
39.770	179.97	92.8002	4.9454
39.778	180.80	92.7995	4.9454
39.787	181.63	92.7986	4.9453
39.795	182.46	92.7980	4.9453
39.803	183.29	92.7974	4.9453
39.812	184.12	92.7967	4.9452
39.820	184.95	92.7959	4.9452
39.828	185.79	92.7953	4.9451
39.837	186.62	92.7949	4.9451
39.845	187.45	92.7941	4.9451
39.853	188.28	92.7935	4.9450
39.862	189.11	92.7930	4.9450
39.870	189.94	92.7922	4.9450
39.878	190.77	92.7915	4.9449
39.887	191.60	92.7911	4.9449
39.895	192.43	92.7903	4.9449
39.903	193.26	92.7894	4.9448
39.912	194.09	92.7886	4.9448
39.920	194.92	92.7878	4.9447
39.928	195.75	92.7871	4.9447
39.937	196.57	92.7864	4.9447
39.945	197.40	92.7857	4.9446
39.953	198.23	92.7851	4.9446
39.962	199.06	92.7843	4.9446
39.970	199.89	92.7836	4.9445
39.978	200.72	92.7829	4.9445
39.987	201.55	92.7821	4.9444
39.995	202.38	92.7814	4.9444
40.003	203.22	92.7806	4.9444
40.012	204.05	92.7798	4.9443
40.020	204.88	92.7787	4.9443
40.028	205.72	92.7778	4.9442
40.037	206.55	92.7774	4.9442
40.045	207.38	92.7765	4.9441
40.053	208.22	92.7752	4.9441
40.062	209.05	92.7740	4.9440
40.070	209.89	92.7730	4.9440
40.078	210.72	92.7719	4.9439
40.087	211.56	92.7707	4.9438
40.095	212.39	92.7698	4.9438
40.103	213.23	92.7688	4.9437
40.112	214.06	92.7676	4.9437
40.120	214.89	92.7664	4.9436
40.128	215.73	92.7651	4.9435
40.137	216.56	92.7639	4.9435
40.145	217.39	92.7626	4.9434
40.153	218.22	92.7613	4.9433
40.162	219.05	92.7597	4.9432
40.170	219.88	92.7585	4.9432
40.178	220.71	92.7569	4.9431
40.187	221.54	92.7551	4.9430
40.195	222.37	92.7537	4.9429
40.203	223.21	92.7522	4.9428
40.212	224.04	92.7504	4.9427
40.220	224.87	92.7484	4.9426
40.228	225.70	92.7463	4.9425
40.237	226.53	92.7443	4.9424
40.245	227.36	92.7423	4.9423
40.253	228.19	92.7399	4.9422
40.262	229.02	92.7378	4.9421
40.270	229.86	92.7355	4.9420
40.278	230.69	92.7330	4.9418
40.287	231.52	92.7304	4.9417
40.295	232.36	92.7279	4.9416
40.303	233.19	92.7254	4.9414
40.312	234.03	92.7228	4.9413
40.320	234.86	92.7200	4.9411
40.328	235.70	92.7174	4.9410
40.337	236.53	92.7145	4.9408
40.345	237.37	92.7111	4.9407
40.353	238.20	92.7077	4.9405
40.362	239.04	92.7045	4.9403
40.370	239.87	92.7012	4.9401
40.378	240.70	92.6977	4.9399
40.387	241.54	92.6943	4.9398
40.395	242.37	92.6909	4.9396
40.403	243.20	92.6870	4.9394
40.412	244.03	92.6829	4.9392
40.420	244.87	92.6786	4.9389
40.428	245.70	92.6743	4.9387
40.437	246.53	92.6699	4.9385
40.445	247.36	92.6651	4.9382
40.453	248.19	92.6604	4.9380
40.462	249.02	92.6557	4.9377
40.470	249.85	92.6506	4.9374
40.478	250.68	92.6455	4.9372
40.487	251.51	92.6401	4.9369
40.495	252.34	92.6347	4.9366
40.503	253.18	92.6290	4.9363
40.512	254.01	92.6231	4.9360
40.520	254.84	92.6170	4.9356
40.528	255.67	92.6109	4.9353
40.537	256.51	92.6044	4.9350
40.545	257.34	92.5978	4.9346
40.553	258.18	92.5912	4.9343
40.562	259.01	92.5844	4.9339
40.570	259.84	92.5771	4.9335
40.578	260.68	92.5699	4.9331
40.587	261.51	92.5623	4.9327
40.595	262.35	92.5543	4.9323
40.603	263.18	92.5461	4.9319
40.612	264.02	92.5376	4.9314
40.620	264.85	92.5291	4.9310
40.628	265.69	92.5199	4.9305
40.637	266.52	92.5106	4.9300
40.645	267.35	92.5009	4.9295
40.653	268.18	92.4910	4.9289
40.662	269.02	92.4810	4.9284
40.670	269.85	92.4712	4.9279
40.678	270.68	92.4607	4.9273
40.687	271.51	92.4497	4.9267
40.695	272.34	92.4383	4.9261
40.703	273.17	92.4265	4.9255
40.712	274.00	92.4146	4.9249
40.720	274.83	92.4024	4.9242
40.728	275.66	92.3900	4.9235
40.737	276.49	92.3754	4.9228
40.745	277.32	92.3589	4.9219
40.753	278.16	92.3433	4.9211
40.762	278.99	92.3273	4.9202
40.770	279.82	92.3081	4.9192
40.778	280.65	92.2897	4.9182
40.787	281.49	92.2701	4.9172
40.795	282.32	92.2438	4.9158
40.803	283.16	92.2144	4.9142
40.812	283.99	92.1850	4.9126
40.820	284.83	92.1539	4.9110
40.828	285.66	92.1238	4.9094
40.837	286.49	92.0930	4.9077
40.845	287.33	92.0615	4.9060
40.853	288.16	92.0230	4.9040
40.862	289.00	91.9880	4.9021
40.870	289.83	91.9458	4.8999
40.878	290.67	91.9039	4.8976
40.887	291.50	91.8598	4.8953
40.895	292.33	91.8189	4.8931
40.903	293.16	91.7808	4.8911
40.912	294.00	91.7405	4.8889
40.920	294.83	91.6928	4.8864
40.928	295.66	91.6434	4.8838
40.937	296.49	91.5888	4.8808
40.945	297.32	91.5340	4.8779
40.953	298.15	91.4850	4.8753
40.962	298.98	91.4354	4.8727
40.970	299.81	91.3801	4.8697
40.978	300.64	91.3227	4.8667
40.987	301.47	91.2635	4.8635
40.995	302.31	91.2042	4.8604
41.003	303.14	91.1494	4.8574
41.012	303.97	91.0848	4.8540
41.020	304.80	91.0102	4.8500
41.028	305.64	90.9401	4.8463
41.037	306.47	90.8705	4.8426
41.045	307.30	90.8025	4.8389
41.053	308.14	90.7353	4.8354
41.062	308.97	90.6653	4.8316
41.070	309.81	90.5972	4.8280
41.078	310.64	90.5229	4.8240
41.087	311.48	90.4430	4.8198
41.095	312.31	90.3571	4.8152
41.103	313.15	90.2730	4.8107
41.112	313.98	90.1922	4.8064
41.120	314.81	90.1053	4.8018
41.128	315.65	90.0025	4.7963
41.137	316.48	89.9010	4.7909
41.145	317.31	89.7996	4.7855
41.153	318.14	89.6955	4.7800
41.162	318.98	89.5887	4.7743
41.170	319.81	89.4798	4.7685
41.178	320.64	89.3670	4.7624
41.187	321.47	89.2336	4.7553
41.195	322.30	89.0866	4.7475
41.203	323.13	88.9561	4.7405
41.212	323.96	88.8140	4.7330
41.220	324.79	88.6595	4.7247
41.228	325.62	88.4945	4.7160
41.237	326.45	88.3127	4.7063
41.245	327.29	88.1353	4.6968
41.253	328.12	87.9338	4.6861
41.262	328.95	87.7283	4.6751
41.270	329.78	87.5004	4.6630
41.278	330.62	87.2591	4.6501
41.287	331.45	87.0009	4.6364
41.295	332.29	86.7332	4.6221
41.303	333.12	86.4372	4.6063
41.312	333.96	86.1287	4.5899
41.320	334.79	85.7995	4.5723
41.328	335.62	85.4434	4.5534
41.337	336.46	85.0622	4.5330
41.345	337.29	84.6553	4.5114
41.353	338.13	84.2130	4.4878
41.362	338.96	83.7611	4.4637
41.370	339.79	83.2662	4.4373
41.378	340.63	82.7177	4.4081
41.387	341.46	82.1505	4.3779
41.395	342.29	81.5592	4.3464
41.403	343.12	80.9178	4.3122
41.412	343.95	80.2540	4.2768
41.420	344.78	79.5326	4.2384
41.428	345.61	78.7778	4.1981
41.437	346.44	77.9850	4.1559
41.445	347.27	77.1636	4.1121
41.453	348.11	76.2746	4.0647
41.462	348.94	75.3347	4.0147
41.470	349.77	74.3650	3.9630
41.478	350.60	73.3461	3.9087
41.487	351.43	72.2741	3.8515
41.495	352.26	71.1593	3.7921
41.503	353.10	69.9979	3.7302
41.512	353.93	68.7653	3.6646
41.520	354.76	67.4977	3.5970
41.528	355.60	66.1952	3.5276
41.537	356.43	64.8123	3.4539
41.545	357.27	63.4063	3.3790
41.553	358.10	61.9408	3.3009
41.562	358.94	60.4297	3.2204
41.570	359.77	58.8664	3.1370
41.578	360.60	57.2571	3.0513
41.587	361.44	55.6101	2.9635
41.595	362.27	53.9192	2.8734
41.603	363.11	52.1778	2.7806
41.612	363.94	50.3890	2.6853
41.620	364.77	48.5732	2.5885
41.628	365.60	46.7154	2.4895
41.637	366.43	44.8262	2.3888
41.645	367.27	42.9098	2.2867
41.653	368.10	40.9530	2.1824
41.662	368.93	38.9771	2.0771
41.670	369.76	36.9813	1.9708
41.678	370.59	34.9833	1.8643
41.687	371.42	32.9632	1.7566
41.695	372.25	30.9309	1.6483
41.703	373.08	28.9252	1.5415
41.712	373.92	26.9327	1.4353
41.720	374.75	24.9660	1.3305
41.728	375.58	23.0476	1.2282
41.737	376.41	21.1848	1.1290
41.745	377.25	19.4061	1.0342
41.753	378.08	17.7230	0.9445
41.762	378.92	16.1642	0.8614
41.770	379.75	14.7383	0.7854
41.778	380.59	13.4585	0.7172
41.787	381.42	12.3550	0.6584
41.795	382.26	11.4410	0.6097
41.803	383.09	10.6794	0.5691
41.812	383.93	10.0663	0.5364
41.820	384.76	9.6137	0.5123
41.828	385.60	9.2766	0.4944
41.837	386.43	9.0330	0.4814
41.845	387.27	8.8387	0.4710
41.853	388.10	8.6882	0.4630
41.862	388.93	8.5564	0.4560
41.870	389.76	8.4463	0.4501
41.878	390.59	8.3661	0.4458
41.887	391.42	8.3065	0.4427
41.895	392.25	8.2430	0.4393
41.903	393.08	8.1822	0.4360
41.912	393.91	8.1309	0.4333
41.920	394.74	8.0842	0.4308
41.928	395.57	8.0388	0.4284
41.937	396.40	8.0004	0.4263
41.945	397.23	7.9639	0.4244
41.953	398.05	7.9350	0.4229
41.962	398.88	7.9055	0.4213
41.970	399.71	7.8746	0.4196
41.978	400.54	7.8422	0.4179
41.987	401.37	7.8107	0.4162
41.995	402.20	7.7808	0.4146
42.003	403.03	7.7507	0.4130
42.012	403.86	7.7250	0.4117
42.020	404.69	7.7015	0.4104
42.028	405.52	7.6797	0.4093
42.037	406.36	7.6605	0.4082
42.045	407.19	7.6341	0.4068
42.053	408.02	7.6095	0.4055
42.062	408.85	7.5858	0.4043
42.070	409.68	7.5649	0.4031
42.078	410.51	7.5454	0.4021
42.087	411.34	7.5276	0.4012
42.095	412.17	7.5097	0.4002
42.103	413.00	7.4905	0.3992
42.112	413.83	7.4717	0.3982
42.120	414.66	7.4532	0.3972
42.128	415.49	7.4398	0.3965
42.137	416.32	7.4223	0.3955
42.145	417.15	7.3985	0.3943
42.153	417.98	7.3802	0.3933
42.162	418.81	7.3624	0.3923
42.170	419.64	7.3389	0.3911
42.178	420.47	7.3180	0.3900
42.187	421.30	7.3015	0.3891
42.195	422.13	7.2815	0.3880
42.203	422.97	7.2627	0.3870
42.212	423.80	7.2433	0.3860
42.220	424.63	7.2270	0.3851
42.228	425.47	7.2068	0.3841
42.237	426.30	7.1827	0.3828
42.245	427.13	7.1637	0.3818
42.253	427.97	7.1467	0.3809
42.262	428.80	7.1289	0.3799
42.270	429.63	7.1133	0.3791
42.278	430.47	7.0936	0.3780
42.287	431.30	7.0724	0.3769
42.295	432.13	7.0549	0.3760
42.303	432.96	7.0397	0.3751
42.312	433.79	7.0185	0.3740
42.320	434.62	6.9936	0.3727
42.328	435.45	6.9730	0.3716
42.337	436.29	6.9534	0.3706
42.345	437.12	6.9324	0.3694
42.353	437.95	6.9112	0.3683
42.362	438.78	6.8885	0.3671
42.370	439.61	6.8696	0.3661
42.378	440.44	6.8548	0.3653
42.387	441.27	6.8368	0.3643
42.395	442.10	6.8124	0.3630
42.403	442.93	6.7846	0.3616
42.412	443.77	6.7659	0.3606
42.420	444.60	6.7501	0.3597
42.428	445.43	6.7226	0.3583
42.437	446.27	6.6981	0.3570
42.445	447.10	6.6742	0.3557
42.453	447.93	6.6554	0.3547
42.462	448.77	6.6338	0.3535
42.470	449.60	6.6102	0.3523
42.478	450.43	6.5858	0.3510
42.487	451.27	6.5635	0.3498
42.495	452.10	6.5450	0.3488
42.503	452.93	6.5246	0.3477
42.512	453.77	6.4984	0.3463
42.520	454.60	6.4764	0.3451
42.528	455.43	6.4529	0.3439
42.537	456.26	6.4263	0.3425
42.545	457.09	6.4059	0.3414
42.553	457.92	6.3844	0.3402
42.562	458.75	6.3564	0.3387
42.570	459.58	6.3319	0.3374
42.578	460.41	6.3093	0.3362
42.587	461.24	6.2886	0.3351
42.595	462.07	6.2658	0.3339
42.603	462.91	6.2389	0.3325
42.612	463.74	6.2095	0.3309
42.620	464.57	6.1833	0.3295
42.628	465.40	6.1613	0.3283
42.637	466.24	6.1351	0.3269
42.645	467.07	6.1060	0.3254
42.653	467.90	6.0812	0.3241
42.662	468.74	6.0550	0.3227
42.670	469.57	6.0260	0.3211
42.678	470.40	6.0017	0.3198
42.687	471.24	5.9795	0.3187
42.695	472.07	5.9546	0.3173
42.703	472.90	5.9236	0.3157
42.712	473.73	5.8891	0.3138
42.720	474.57	5.8579	0.3122
42.728	475.40	5.8269	0.3105
42.737	476.23	5.8013	0.3092
42.745	477.06	5.7713	0.3076
42.753	477.89	5.7373	0.3057
42.762	478.72	5.7083	0.3042
42.770	479.55	5.6865	0.3030
42.778	480.38	5.6599	0.3016
42.787	481.22	5.6374	0.3004
42.795	482.05	5.6016	0.2985
42.803	482.88	5.5677	0.2967
42.812	483.71	5.5339	0.2949
42.820	484.54	5.4998	0.2931
42.828	485.37	5.4601	0.2910
42.837	486.21	5.4260	0.2892
42.845	487.04	5.3964	0.2876
42.853	487.87	5.3679	0.2861
42.862	488.71	5.3409	0.2846
42.870	489.54	5.2998	0.2824
42.878	490.37	5.2628	0.2805
42.887	491.21	5.2273	0.2786
42.895	492.04	5.1919	0.2767
42.903	492.87	5.1513	0.2745
42.912	493.71	5.1146	0.2726
42.920	494.54	5.0772	0.2706
42.928	495.37	5.0377	0.2685
42.937	496.20	4.9986	0.2664
42.945	497.03	4.9571	0.2642
42.953	497.86	4.9138	0.2619
42.962	498.69	4.8748	0.2598
42.970	499.53	4.8372	0.2578
42.978	500.36	4.7992	0.2558
42.987	501.19	4.7541	0.2533
42.995	502.02	4.7097	0.2510
43.003	502.85	4.6723	0.2490
43.012	503.68	4.6261	0.2465
43.020	504.51	4.5774	0.2439
43.028	505.35	4.5293	0.2414
43.037	506.18	4.4819	0.2388
43.045	507.01	4.4314	0.2362
43.053	507.84	4.3867	0.2338
43.062	508.68	4.3421	0.2314
43.070	509.51	4.2924	0.2287
43.078	510.34	4.2403	0.2260
43.087	511.18	4.1886	0.2232
43.095	512.01	4.1366	0.2204
43.103	512.84	4.0887	0.2179
43.112	513.68	4.0357	0.2151
43.120	514.51	3.9744	0.2118
43.128	515.34	3.9249	0.2092
43.137	516.17	3.8714	0.2063
43.145	517.00	3.8030	0.2027
43.153	517.84	3.7453	0.1996
43.162	518.67	3.6872	0.1965
43.170	519.50	3.6302	0.1935
43.178	520.33	3.5654	0.1900
43.187	521.16	3.5069	0.1869
43.195	521.99	3.4455	0.1836
43.203	522.82	3.3765	0.1799
43.212	523.65	3.3072	0.1762
43.220	524.48	3.2355	0.1724
43.228	525.32	3.1670	0.1688
43.237	526.15	3.1107	0.1658
43.245	526.98	3.0494	0.1625
43.253	527.82	2.9750	0.1585
43.262	528.65	2.9147	0.1553
43.270	529.48	2.8434	0.1515
43.278	530.32	2.7634	0.1473
43.287	531.15	2.6809	0.1429
43.295	531.98	2.6026	0.1387
43.303	532.82	2.5248	0.1345
43.312	533.65	2.4529	0.1307
43.320	534.48	2.3868	0.1272
43.328	535.31	2.3173	0.1235
43.337	536.14	2.2408	0.1194
43.345	536.97	2.1622	0.1152
43.353	537.81	2.0821	0.1110
43.362	538.64	2.0087	0.1070
43.370	539.47	1.9341	0.1031
43.378	540.30	1.8632	0.0993
43.387	541.13	1.8008	0.0960
43.395	541.96	1.7293	0.0922
43.403	542.79	1.6503	0.0879
43.412	543.62	1.5832	0.0844
43.420	544.45	1.5109	0.0805
43.428	545.29	1.4417	0.0768
43.437	546.12	1.3766	0.0734
43.445	546.95	1.3109	0.0699
43.453	547.78	1.2506	0.0666
43.462	548.61	1.2004	0.0640
43.470	549.45	1.1498	0.0613
43.478	550.28	1.0995	0.0586
43.487	551.11	1.0490	0.0559
43.495	551.95	0.9944	0.0530
43.503	552.78	0.9414	0.0502
43.512	553.61	0.9030	0.0481
43.520	554.44	0.8651	0.0461
43.528	555.27	0.8244	0.0439
43.537	556.10	0.7792	0.0415
43.545	556.93	0.7437	0.0396
43.553	557.76	0.7142	0.0381
43.562	558.59	0.6844	0.0365
43.570	559.42	0.6567	0.0350
43.578	560.25	0.6333	0.0338
43.587	561.08	0.6079	0.0324
43.595	561.91	0.5891	0.0314
43.603	562.74	0.5702	0.0304
43.612	563.58	0.5488	0.0292
43.620	564.41	0.5333	0.0284
43.628	565.24	0.5174	0.0276
43.637	566.07	0.5049	0.0269
43.645	566.90	0.4948	0.0264
43.653	567.74	0.4863	0.0259
43.662	568.57	0.4771	0.0254
43.670	569.40	0.4693	0.0250
43.678	570.23	0.4611	0.0246
43.687	571.06	0.4525	0.0241
43.695	571.90	0.4439	0.0237
43.703	572.73	0.4359	0.0232
43.712	573.56	0.4281	0.0228
43.720	574.39	0.4208	0.0224
43.728	575.22	0.4137	0.0220
43.737	576.05	0.4067	0.0217
43.745	576.88	0.4004	0.0213
43.753	577.71	0.3949	0.0210
43.762	578.54	0.3898	0.0208
43.770	579.37	0.3843	0.0205
43.778	580.20	0.3780	0.0201
43.787	581.03	0.3722	0.0198
43.795	581.87	0.3666	0.0195
43.803	582.70	0.3614	0.0193
43.812	583.53	0.3563	0.0190
43.820	584.36	0.3516	0.0187
43.828	585.19	0.3477	0.0185
43.837	586.03	0.3436	0.0183
43.845	586.86	0.3401	0.0181
43.853	587.69	0.3370	0.0180
43.862	588.53	0.3331	0.0178
43.870	589.36	0.3297	0.0176
43.878	590.19	0.3256	0.0174
43.887	591.02	0.3220	0.0172
43.895	591.85	0.3192	0.0170
43.903	592.68	0.3166	0.0169
43.912	593.52	0.3140	0.0167
43.920	594.35	0.3112	0.0166
43.928	595.18	0.3080	0.0164
43.937	596.01	0.3057	0.0163
43.945	596.84	0.3034	0.0162
43.953	597.67	0.3013	0.0161
43.962	598.50	0.2992	0.0159
43.970	599.33	0.2966	0.0158
43.978	600.16	0.2941	0.0157
43.987	600.99	0.2920	0.0156
43.995	601.82	0.2904	0.0155
44.003	602.65	0.2887	0.0154
44.012	603.48	0.2869	0.0153
44.020	604.32	0.2854	0.0152
44.028	605.15	0.2841	0.0151
44.037	605.98	0.2829	0.0151
44.045	606.81	0.2818	0.0150
44.053	607.64	0.2800	0.0149
44.062	608.48	0.2784	0.0148
44.070	609.31	0.2768	0.0148
44.078	610.14	0.2761	0.0147
44.087	610.97	0.2759	0.0147
44.095	611.80	0.2750	0.0147
44.103	612.63	0.2730	0.0146
44.112	613.46	0.2715	0.0145
44.120	614.29	0.2705	0.0144
44.128	615.12	0.2695	0.0144
44.137	615.95	0.2686	0.0143
44.145	616.78	0.2685	0.0143
44.153	617.61	0.2682	0.0143
44.162	618.45	0.2670	0.0142
44.170	619.28	0.2656	0.0142
44.178	620.11	0.2648	0.0141
44.187	620.94	0.2644	0.0141
44.195	621.77	0.2639	0.0141
44.203	622.60	0.2636	0.0140
44.212	623.44	0.2633	0.0140
44.220	624.27	0.2627	0.0140
44.228	625.10	0.2611	0.0139
44.237	625.93	0.2599	0.0139
44.245	626.77	0.2600	0.0139
44.253	627.60	0.2600	0.0139
44.262	628.43	0.2589	0.0138
44.270	629.26	0.2578	0.0137
44.278	630.09	0.2566	0.0137
44.287	630.92	0.2558	0.0136
44.295	631.75	0.2553	0.0136
44.303	632.58	0.2546	0.0136
44.312	633.41	0.2541	0.0135
44.320	634.24	0.2535	0.0135
44.328	635.07	0.2530	0.0135
44.337	635.90	0.2528	0.0135
44.345	636.74	0.2520	0.0134
44.353	637.57	0.2512	0.0134
44.362	638.40	0.2506	0.0134
44.370	639.23	0.2500	0.0133
44.378	640.06	0.2498	0.0133
44.387	640.90	0.2493	0.0133
44.395	641.73	0.2489	0.0133
44.403	642.56	0.2488	0.0133
44.412	643.39	0.2486	0.0132
44.420	644.23	0.2489	0.0133
44.428	645.06	0.2490	0.0133
44.437	645.89	0.2485	0.0132
44.445	646.72	0.2475	0.0132
44.453	647.55	0.2469	0.0132
44.462	648.38	0.2471	0.0132
44.470	649.21	0.2472	0.0132
44.478	650.04	0.2465	0.0131
44.487	650.87	0.2464	0.0131
44.495	651.70	0.2466	0.0131
44.503	652.53	0.2465	0.0131
44.512	653.37	0.2460	0.0131
44.520	654.20	0.2455	0.0131
44.528	655.03	0.2455	0.0131
44.537	655.86	0.2453	0.0131
44.545	656.69	0.2449	0.0130
44.553	657.52	0.2446	0.0130
44.562	658.35	0.2448	0.0130
44.570	659.18	0.2444	0.0130
44.578	660.02	0.2441	0.0130
44.587	660.85	0.2441	0.0130
44.595	661.68	0.2441	0.0130
44.603	662.51	0.2445	0.0130
44.612	663.34	0.2446	0.0130
44.620	664.18	0.2447	0.0130
44.628	665.01	0.2458	0.0131
44.637	665.84	0.2459	0.0131
44.645	666.67	0.2450	0.0131
44.653	667.50	0.2442	0.0130
44.662	668.33	0.2438	0.0130
44.670	669.16	0.2440	0.0130
44.678	669.99	0.2441	0.0130
44.687	670.82	0.2438	0.0130
44.695	671.65	0.2437	0.0130
44.703	672.48	0.2438	0.0130
44.712	673.31	0.2433	0.0130
44.720	674.14	0.2435	0.0130
44.728	674.97	0.2443	0.0130
44.737	675.80	0.2445	0.0130
44.745	676.63	0.2448	0.0130
44.753	677.47	0.2448	0.0130
44.762	678.30	0.2446	0.0130
44.770	679.13	0.2453	0.0131
44.778	679.96	0.2458	0.0131
44.787	680.79	0.2452	0.0131
44.795	681.62	0.2454	0.0131
44.803	682.45	0.2459	0.0131
44.812	683.29	0.2462	0.0131
44.820	684.12	0.2467	0.0131
44.828	684.95	0.2474	0.0132
44.837	685.78	0.2474	0.0132
44.845	686.60	0.2476	0.0132
44.853	687.43	0.2479	0.0132
44.862	688.26	0.2483	0.0132
44.870	689.09	0.2492	0.0133
44.878	689.92	0.2501	0.0133
44.887	690.75	0.2509	0.0134
44.895	691.58	0.2509	0.0134
44.903	692.41	0.2509	0.0134
44.912	693.24	0.2521	0.0134
44.920	694.07	0.2527	0.0135
44.928	694.90	0.2525	0.0135
44.937	695.74	0.2526	0.0135
44.945	696.57	0.2532	0.0135
44.953	697.40	0.2535	0.0135
44.962	698.23	0.2536	0.0135
44.970	699.06	0.2537	0.0135
44.978	699.89	0.2537	0.0135
44.987	700.72	0.2541	0.0135
44.995	701.56	0.2547	0.0136
45.003	702.39	0.2548	0.0136
45.012	703.21	0.2543	0.0136
45.020	704.04	0.2545	0.0136
45.028	704.87	0.2556	0.0136
45.037	705.70	0.2557	0.0136
45.045	706.53	0.2553	0.0136
45.053	707.36	0.2554	0.0136
45.062	708.19	0.2557	0.0136
45.070	709.02	0.2564	0.0137
45.078	709.85	0.2567	0.0137
45.087	710.68	0.2572	0.0137
45.095	711.51	0.2577	0.0137
45.103	712.34	0.2583	0.0138
45.112	713.17	0.2582	0.0138
45.120	714.00	0.2580	0.0138
45.128	714.83	0.2581	0.0138
45.137	715.66	0.2587	0.0138
45.145	716.49	0.2588	0.0138
45.153	717.32	0.2592	0.0138
45.162	718.16	0.2597	0.0138
45.170	718.99	0.2603	0.0139
45.178	719.82	0.2604	0.0139
45.187	720.65	0.2601	0.0139
45.195	721.48	0.2605	0.0139
45.203	722.30	0.2613	0.0139
45.212	723.13	0.2615	0.0139
45.220	723.96	0.2616	0.0139
45.228	724.79	0.2628	0.0140
45.237	725.62	0.2633	0.0140
45.245	726.45	0.2636	0.0140
45.253	727.28	0.2643	0.0141
45.262	728.11	0.2647	0.0141
45.270	728.94	0.2648	0.0141
45.278	729.77	0.2647	0.0141
45.287	730.60	0.2645	0.0141
45.295	731.44	0.2641	0.0141
45.303	732.27	0.2642	0.0141
45.312	733.10	0.2652	0.0141
45.320	733.93	0.2662	0.0142
45.328	734.76	0.2665	0.0142
45.337	735.59	0.2667	0.0142
45.345	736.42	0.2663	0.0142
45.353	737.25	0.2662	0.0142
45.362	738.08	0.2659	0.0142
45.370	738.91	0.2657	0.0142
45.378	739.74	0.2661	0.0142
45.387	740.57	0.2666	0.0142
45.395	741.40	0.2669	0.0142
45.403	742.23	0.2669	0.0142
45.412	743.06	0.2673	0.0142
45.420	743.89	0.2669	0.0142
45.428	744.72	0.2670	0.0142
45.437	745.55	0.2673	0.0142
45.445	746.38	0.2675	0.0143
45.453	747.21	0.2676	0.0143
45.462	748.04	0.2676	0.0143
45.470	748.87	0.2679	0.0143
45.478	749.70	0.2680	0.0143
45.487	750.53	0.2681	0.0143
45.495	751.36	0.2683	0.0143
45.503	752.19	0.2689	0.0143
45.512	753.02	0.2692	0.0143
45.520	753.85	0.2690	0.0143
45.528	754.68	0.2688	0.0143
45.537	755.51	0.2700	0.0144
45.545	756.34	0.2719	0.0145
45.553	757.17	0.2723	0.0145
45.562	758.00	0.2712	0.0145
45.570	758.83	0.2713	0.0145
45.578	759.66	0.2717	0.0145
45.587	760.49	0.2729	0.0145
45.595	761.32	0.2725	0.0145
45.603	762.15	0.2720	0.0145
45.612	762.98	0.2718	0.0145
45.620	763.81	0.2718	0.0145
45.628	764.64	0.2726	0.0145
45.637	765.47	0.2731	0.0146
45.645	766.31	0.2729	0.0145
45.653	767.14	0.2730	0.0145
45.662	767.97	0.2733	0.0146
45.670	768.80	0.2745	0.0146
45.678	769.63	0.2748	0.0146
45.687	770.46	0.2752	0.0147
45.695	771.29	0.2754	0.0147
45.703	772.12	0.2751	0.0147
45.712	772.95	0.2744	0.0146
45.720	773.77	0.2744	0.0146
45.728	774.60	0.2753	0.0147
45.737	775.43	0.2759	0.0147
45.745	776.26	0.2761	0.0147
45.753	777.09	0.2761	0.0147
45.762	777.92	0.2761	0.0147
45.770	778.75	0.2765	0.0147
45.778	779.58	0.2768	0.0148
45.787	780.41	0.2771	0.0148
45.795	781.24	0.2773	0.0148
45.803	782.07	0.2768	0.0148
45.812	782.91	0.2766	0.0147
45.820	783.74	0.2769	0.0148
45.828	784.57	0.2774	0.0148
45.837	785.40	0.2781	0.0148
45.845	786.23	0.2788	0.0149
45.853	787.06	0.2789	0.0149
45.862	787.89	0.2790	0.0149
45.870	788.72	0.2792	0.0149
45.878	789.55	0.2794	0.0149
45.887	790.37	0.2796	0.0149
45.895	791.20	0.2801	0.0149
45.903	792.03	0.2805	0.0149
45.912	792.86	0.2805	0.0149
45.920	793.69	0.2805	0.0149
45.928	794.52	0.2812	0.0150
45.937	795.35	0.2811	0.0150
45.945	796.18	0.2805	0.0149
45.953	797.01	0.2806	0.0150
45.962	797.84	0.2809	0.0150
45.970	798.68	0.2812	0.0150
45.978	799.51	0.2815	0.0150
45.987	800.34	0.2825	0.0151
45.995	801.17	0.2836	0.0151
46.003	802.00	0.2835	0.0151
46.012	802.83	0.2841	0.0151
46.020	803.66	0.2843	0.0152
46.028	804.49	0.2843	0.0152
46.037	805.32	0.2839	0.0151
46.045	806.14	0.2832	0.0151
46.053	806.97	0.2840	0.0151
46.062	807.80	0.2846	0.0152
46.070	808.63	0.2844	0.0152
46.078	809.46	0.2840	0.0151
46.087	810.29	0.2841	0.0151
46.095	811.12	0.2838	0.0151
46.103	811.95	0.2839	0.0151
46.112	812.78	0.2839	0.0151
46.120	813.61	0.2838	0.0151
46.128	814.44	0.2840	0.0151
46.137	815.27	0.2842	0.0151
46.145	816.10	0.2844	0.0152
46.153	816.93	0.2847	0.0152
46.162	817.76	0.2844	0.0152
46.170	818.59	0.2844	0.0152
46.178	819.42	0.2860	0.0152
46.187	820.25	0.2869	0.0153
46.195	821.08	0.2868	0.0153
46.203	821.91	0.2872	0.0153
46.212	822.74	0.2883	0.0154
46.220	823.57	0.2890	0.0154
46.228	824.40	0.2892	0.0154
46.237	825.23	0.2892	0.0154
46.245	826.06	0.2888	0.0154
46.253	826.89	0.2886	0.0154
46.262	827.71	0.2895	0.0154
46.270	828.55	0.2900	0.0155
46.278	829.38	0.2894	0.0154
46.287	830.21	0.2892	0.0154
46.295	831.04	0.2895	0.0154
46.303	831.87	0.2898	0.0154
46.312	832.70	0.2900	0.0155
46.320	833.53	0.2901	0.0155
46.328	834.36	0.2902	0.0155
46.337	835.19	0.2907	0.0155
46.345	836.02	0.2913	0.0155
46.353	836.85	0.2913	0.0155
46.362	837.68	0.2908	0.0155
46.370	838.50	0.2910	0.0155
46.378	839.33	0.2919	0.0156
46.387	840.16	0.2925	0.0156
46.395	840.99	0.2929	0.0156
46.403	841.82	0.2935	0.0156
46.412	842.65	0.2936	0.0156
46.420	843.48	0.2940	0.0157
46.428	844.31	0.2933	0.0156
46.437	845.14	0.2927	0.0156
46.445	845.97	0.2925	0.0156
46.453	846.80	0.2926	0.0156
46.462	847.63	0.2935	0.0156
46.470	848.46	0.2932	0.0156
46.478	849.29	0.2936	0.0156
46.487	850.12	0.2940	0.0157
46.495	850.95	0.2944	0.0157
46.503	851.78	0.2946	0.0157
46.512	852.61	0.2952	0.0157
46.520	853.44	0.2954	0.0157
46.528	854.27	0.2958	0.0158
46.537	855.09	0.2963	0.0158
46.545	855.92	0.2965	0.0158
46.553	856.75	0.2964	0.0158
46.562	857.58	0.2963	0.0158
46.570	858.41	0.2969	0.0158
46.578	859.24	0.2971	0.0158
46.587	860.07	0.2972	0.0158
46.595	860.90	0.2970	0.0158
46.603	861.73	0.2972	0.0158
46.612	862.56	0.2976	0.0159
46.620	863.39	0.2985	0.0159
46.628	864.22	0.2992	0.0159
46.637	865.05	0.2987	0.0159
46.645	865.88	0.2988	0.0159
46.653	866.71	0.2994	0.0160
46.662	867.54	0.2995	0.0160
46.670	868.37	0.2994	0.0160
46.678	869.20	0.2993	0.0160
46.687	870.03	0.3000	0.0160
46.695	870.86	0.3023	0.0161
46.703	871.69	0.3033	0.0162
46.712	872.51	0.3025	0.0161
46.720	873.34	0.3021	0.0161
46.728	874.17	0.3026	0.0161
46.737	875.00	0.3035	0.0162
46.745	875.83	0.3033	0.0162
46.753	876.66	0.3036	0.0162
46.762	877.49	0.3032	0.0162
46.770	878.32	0.3021	0.0161
46.778	879.15	0.3022	0.0161
46.787	879.98	0.3033	0.0162
46.795	880.81	0.3032	0.0162
46.803	881.64	0.3034	0.0162
46.812	882.47	0.3037	0.0162
46.820	883.30	0.3039	0.0162
46.828	884.13	0.3035	0.0162
46.837	884.96	0.3040	0.0162
46.845	885.79	0.3043	0.0162
46.853	886.62	0.3046	0.0162
46.862	887.45	0.3052	0.0163
46.870	888.27	0.3049	0.0162
46.878	889.10	0.3045	0.0162
46.887	889.93	0.3049	0.0162
46.895	890.76	0.3055	0.0163
46.903	891.59	0.3059	0.0163
46.912	892.43	0.3057	0.0163
46.920	893.26	0.3053	0.0163
46.928	894.09	0.3055	0.0163
46.937	894.92	0.3055	0.0163
46.945	895.75	0.3056	0.0163
46.953	896.58	0.3061	0.0163
46.962	897.41	0.3069	0.0164
46.970	898.24	0.3067	0.0163
46.978	899.06	0.3062	0.0163
46.987	899.89	0.3063	0.0163
46.995	900.72	0.3063	0.0163
47.003	901.55	0.3067	0.0163
47.012	902.38	0.3070	0.0164
47.020	903.21	0.3072	0.0164
47.028	904.04	0.3077	0.0164
47.037	904.86	0.3082	0.0164
47.045	905.69	0.3087	0.0165
47.053	906.52	0.3088	0.0165
47.062	907.35	0.3096	0.0165
47.070	908.18	0.3097	0.0165
47.078	909.01	0.3096	0.0165
47.087	909.84	0.3096	0.0165
47.095	910.67	0.3096	0.0165
47.103	911.50	0.3098	0.0165
47.112	912.33	0.3107	0.0166
47.120	913.16	0.3102	0.0165
47.128	913.99	0.3100	0.0165
47.137	914.82	0.3105	0.0165
47.145	915.64	0.3110	0.0166
47.153	916.47	0.3123	0.0166
47.162	917.30	0.3128	0.0167
47.170	918.13	0.3130	0.0167
47.178	918.96	0.3122	0.0166
47.187	919.79	0.3121	0.0166
47.195	920.62	0.3120	0.0166
47.203	921.44	0.3123	0.0166
47.212	922.27	0.3132	0.0167
47.220	923.10	0.3144	0.0168
47.228	923.93	0.3145	0.0168
47.237	924.76	0.3148	0.0168
47.245	925.59	0.3150	0.0168
47.253	926.42	0.3153	0.0168
47.262	927.24	0.3153	0.0168
47.270	928.07	0.3154	0.0168
47.278	928.90	0.3171	0.0169
47.287	929.72	0.3182	0.0170
47.295	930.54	0.3168	0.0169
47.303	931.37	0.3155	0.0168
47.312	932.19	0.3152	0.0168
47.320	933.01	0.3150	0.0168

[step]
Isothermal 10.0 min
Time	Temperature	Weight	Weight
min	°C	%	mg
47.328	933.83	0.3166	0.0169
47.337	934.65	0.3177	0.0169
47.345	935.46	0.3183	0.0170
47.353	936.26	0.3184	0.0170
47.362	937.04	0.3178	0.0169
47.370	937.77	0.3175	0.0169
47.378	938.44	0.3173	0.0169
47.387	939.04	0.3170	0.0169
47.395	939.58	0.3170	0.0169
47.403	940.04	0.3185	0.0170
47.412	940.43	0.3180	0.0169
47.420	940.75	0.3177	0.0169
47.428	941.03	0.3192	0.0170
47.437	941.26	0.3195	0.0170
47.445	941.46	0.3189	0.0170
47.453	941.64	0.3184	0.0170
47.462	941.79	0.3187	0.0170
47.470	941.94	0.3182	0.0170
47.478	942.08	0.3171	0.0169
47.487	942.22	0.3170	0.0169
47.495	942.36	0.3169	0.0169
47.503	942.49	0.3166	0.0169
47.512	942.62	0.3165	0.0169
47.520	942.74	0.3162	0.0169
47.528	942.86	0.3160	0.0168
47.537	942.97	0.3162	0.0168
47.545	943.08	0.3169	0.0169
47.553	943.18	0.3165	0.0169
47.562	943.27	0.3159	0.0168
47.570	943.36	0.3162	0.0168
47.578	943.45	0.3163	0.0169
47.587	943.52	0.3162	0.0169
47.595	943.60	0.3168	0.0169
47.603	943.67	0.3174	0.0169
47.612	943.74	0.3172	0.0169
47.620	943.80	0.3175	0.0169
47.628	943.87	0.3172	0.0169
47.637	943.93	0.3165	0.0169
47.645	943.99	0.3163	0.0169
47.653	944.05	0.3158	0.0168
47.662	944.11	0.3159	0.0168
47.670	944.17	0.3160	0.0168
47.678	944.23	0.3167	0.0169
47.687	944.28	0.3162	0.0169
47.695	944.34	0.3158	0.0168
47.703	944.39	0.3161	0.0168
47.712	944.45	0.3157	0.0168
47.720	944.50	0.3157	0.0168
47.728	944.55	0.3157	0.0168
47.737	944.60	0.3155	0.0168
47.745	944.65	0.3154	0.0168
47.753	944.69	0.3155	0.0168
47.762	944.74	0.3153	0.0168
47.770	944.79	0.3154	0.0168
47.778	944.83	0.3154	0.0168
47.787	944.88	0.3156	0.0168
47.795	944.92	0.3162	0.0169
47.803	944.97	0.3164	0.0169
47.812	945.01	0.3167	0.0169
47.820	945.05	0.3164	0.0169
47.828	945.10	0.3163	0.0169
47.837	945.14	0.3165	0.0169
47.845	945.18	0.3168	0.0169
47.853	945.22	0.3172	0.0169
47.862	945.26	0.3162	0.0169
47.870	945.30	0.3158	0.0168
47.878	945.34	0.3181	0.0169
47.887	945.38	0.3179	0.0169
47.895	945.42	0.3167	0.0169
47.903	945.45	0.3160	0.0168
47.912	945.49	0.3158	0.0168
47.920	945.53	0.3161	0.0168
47.928	945.56	0.3161	0.0168
47.937	945.60	0.3153	0.0168
47.945	945.64	0.3149	0.0168
47.953	945.67	0.3150	0.0168
47.962	945.71	0.3151	0.0168
47.970	945.74	0.3153	0.0168
47.978	945.77	0.3158	0.0168
47.987	945.81	0.3163	0.0169
47.995	945.84	0.3160	0.0168
48.003	945.88	0.3154	0.0168
48.012	945.91	0.3153	0.0168
48.020	945.94	0.3162	0.0169
48.028	945.97	0.3171	0.0169
48.037	946.00	0.3173	0.0169
48.045	946.04	0.3178	0.0169
48.053	946.07	0.3180	0.0169
48.062	946.10	0.3171	0.0169
48.070	946.13	0.3168	0.0169
48.078	946.16	0.3174	0.0169
48.087	946.19	0.3180	0.0169
48.095	946.22	0.3174	0.0169
48.103	946.25	0.3168	0.0169
48.112	946.28	0.3164	0.0169
48.120	946.31	0.3161	0.0168
48.128	946.34	0.3159	0.0168
48.137	946.36	0.3157	0.0168
48.145	946.39	0.3160	0.0168
48.153	946.42	0.3160	0.0168
48.162	946.45	0.3157	0.0168
48.170	946.48	0.3159	0.0168
48.178	946.50	0.3162	0.0168
48.187	946.53	0.3163	0.0169
48.195	946.56	0.3169	0.0169
48.203	946.58	0.3173	0.0169
48.212	946.61	0.3185	0.0170
48.220	946.63	0.3187	0.0170
48.228	946.66	0.3188	0.0170
48.237	946.69	0.3184	0.0170
48.245	946.71	0.3178	0.0169
48.253	946.74	0.3176	0.0169
48.262	946.76	0.3173	0.0169
48.270	946.78	0.3172	0.0169
48.278	946.81	0.3167	0.0169
48.287	946.83	0.3168	0.0169
48.295	946.86	0.3172	0.0169
48.303	946.88	0.3168	0.0169
48.312	946.90	0.3166	0.0169
48.320	946.93	0.3168	0.0169
48.328	946.95	0.3166	0.0169
48.337	946.97	0.3169	0.0169
48.345	947.00	0.3167	0.0169
48.353	947.02	0.3167	0.0169
48.362	947.04	0.3174	0.0169
48.370	947.06	0.3174	0.0169
48.378	947.09	0.3176	0.0169
48.387	947.11	0.3182	0.0170
48.395	947.13	0.3187	0.0170
48.403	947.15	0.3186	0.0170
48.412	947.17	0.3176	0.0169
48.420	947.19	0.3167	0.0169
48.428	947.21	0.3168	0.0169
48.437	947.24	0.3172	0.0169
48.445	947.26	0.3164	0.0169
48.453	947.28	0.3155	0.0168
48.462	947.30	0.3158	0.0168
48.470	947.32	0.3166	0.0169
48.478	947.34	0.3159	0.0168
48.487	947.36	0.3154	0.0168
48.495	947.38	0.3161	0.0168
48.503	947.40	0.3169	0.0169
48.512	947.42	0.3166	0.0169
48.520	947.43	0.3162	0.0168
48.528	947.45	0.3162	0.0168
48.537	947.47	0.3163	0.0169
48.545	947.49	0.3167	0.0169
48.553	947.51	0.3167	0.0169
48.562	947.53	0.3164	0.0169
48.570	947.55	0.3164	0.0169
48.578	947.57	0.3164	0.0169
48.587	947.58	0.3162	0.0168
48.595	947.60	0.3160	0.0168
48.603	947.62	0.3161	0.0168
48.612	947.64	0.3154	0.0168
48.620	947.65	0.3146	0.0168
48.628	947.67	0.3144	0.0168
48.637	947.69	0.3144	0.0168
48.645	947.71	0.3145	0.0168
48.653	947.72	0.3146	0.0168
48.662	947.74	0.3151	0.0168
48.670	947.76	0.3154	0.0168
48.678	947.77	0.3155	0.0168
48.687	947.79	0.3158	0.0168
48.695	947.81	0.3157	0.0168
48.703	947.82	0.3152	0.0168
48.712	947.84	0.3150	0.0168
48.720	947.85	0.3156	0.0168
48.728	947.87	0.3164	0.0169
48.737	947.89	0.3171	0.0169
48.745	947.90	0.3164	0.0169
48.753	947.92	0.3156	0.0168
48.762	947.93	0.3155	0.0168
48.770	947.95	0.3155	0.0168
48.778	947.96	0.3163	0.0169
48.787	947.98	0.3163	0.0169
48.795	947.99	0.3170	0.0169
48.803	948.01	0.3180	0.0169
48.812	948.02	0.3186	0.0170
48.820	948.04	0.3177	0.0169
48.828	948.05	0.3173	0.0169
48.837	948.06	0.3172	0.0169
48.845	948.08	0.3170	0.0169
48.853	948.09	0.3176	0.0169
48.862	948.11	0.3181	0.0170
48.870	948.12	0.3189	0.0170
48.878	948.13	0.3198	0.0170
48.887	948.15	0.3199	0.0170
48.895	948.16	0.3188	0.0170
48.903	948.18	0.3191	0.0170
48.912	948.19	0.3197	0.0170
48.920	948.20	0.3195	0.0170
48.928	948.22	0.3198	0.0170
48.937	948.23	0.3202	0.0171
48.945	948.24	0.3190	0.0170
48.953	948.26	0.3184	0.0170
48.962	948.27	0.3183	0.0170
48.970	948.28	0.3182	0.0170
48.978	948.29	0.3184	0.0170
48.987	948.31	0.3183	0.0170
48.995	948.32	0.3181	0.0170
49.003	948.33	0.3180	0.0169
49.012	948.34	0.3181	0.0170
49.020	948.36	0.3184	0.0170
49.028	948.37	0.3184	0.0170
49.037	948.38	0.3182	0.0170
49.045	948.39	0.3183	0.0170
49.053	948.40	0.3182	0.0170
49.062	948.42	0.3184	0.0170
49.070	948.43	0.3186	0.0170
49.078	948.44	0.3187	0.0170
49.087	948.45	0.3186	0.0170
49.095	948.46	0.3186	0.0170
49.103	948.47	0.3191	0.0170
49.112	948.48	0.3194	0.0170
49.120	948.50	0.3191	0.0170
49.128	948.51	0.3197	0.0170
49.137	948.52	0.3200	0.0171
49.145	948.53	0.3199	0.0170
49.153	948.54	0.3202	0.0171
49.162	948.55	0.3201	0.0171
49.170	948.56	0.3198	0.0170
49.178	948.57	0.3190	0.0170
49.187	948.58	0.3186	0.0170
49.195	948.59	0.3196	0.0170
49.203	948.60	0.3202	0.0171
49.212	948.61	0.3201	0.0171
49.220	948.62	0.3199	0.0170
49.228	948.63	0.3191	0.0170
49.237	948.64	0.3187	0.0170
49.245	948.65	0.3188	0.0170
49.253	948.66	0.3188	0.0170
49.262	948.67	0.3188	0.0170
49.270	948.68	0.3189	0.0170
49.278	948.69	0.3194	0.0170
49.287	948.70	0.3208	0.0171
49.295	948.71	0.3203	0.0171
49.303	948.72	0.3196	0.0170
49.312	948.73	0.3190	0.0170
49.320	948.74	0.3190	0.0170
49.328	948.75	0.3194	0.0170
49.337	948.76	0.3200	0.0171
49.345	948.77	0.3206	0.0171
49.353	948.78	0.3200	0.0171
49.362	948.78	0.3195	0.0170
49.370	948.79	0.3194	0.0170
49.378	948.80	0.3195	0.0170
49.387	948.81	0.3199	0.0170
49.395	948.82	0.3199	0.0170
49.403	948.83	0.3197	0.0170
49.412	948.83	0.3193	0.0170
49.420	948.84	0.3185	0.0170
49.428	948.85	0.3186	0.0170
49.437	948.86	0.3184	0.0170
49.445	948.87	0.3183	0.0170
49.453	948.88	0.3182	0.0170
49.462	948.88	0.3186	0.0170
49.470	948.89	0.3187	0.0170
49.478	948.90	0.3184	0.0170
49.487	948.91	0.3184	0.0170
49.495	948.92	0.3183	0.0170
49.503	948.92	0.3184	0.0170
49.512	948.93	0.3184	0.0170
49.520	948.94	0.3187	0.0170
49.528	948.95	0.3188	0.0170
49.537	948.95	0.3191	0.0170
49.545	948.96	0.3201	0.0171
49.553	948.97	0.3205	0.0171
49.562	948.98	0.3197	0.0170
49.570	948.98	0.3190	0.0170
49.578	948.99	0.3202	0.0171
49.587	949.00	0.3203	0.0171
49.595	949.01	0.3192	0.0170
49.603	949.01	0.3198	0.0170
49.612	949.02	0.3194	0.0170
49.620	949.03	0.3187	0.0170
49.628	949.03	0.3184	0.0170
49.637	949.04	0.3184	0.0170
49.645	949.05	0.3185	0.0170
49.653	949.05	0.3188	0.0170
49.662	949.06	0.3192	0.0170
49.670	949.07	0.3192	0.0170
49.678	949.07	0.3184	0.0170
49.687	949.08	0.3179	0.0169
49.695	949.09	0.3179	0.0169
49.703	949.09	0.3182	0.0170
49.712	949.10	0.3186	0.0170
49.720	949.11	0.3196	0.0170
49.728	949.11	0.3200	0.0171
49.737	949.12	0.3193	0.0170
49.745	949.13	0.3186	0.0170
49.753	949.13	0.3185	0.0170
49.762	949.14	0.3198	0.0170
49.770	949.15	0.3209	0.0171
49.778	949.15	0.3209	0.0171
49.787	949.16	0.3201	0.0171
49.795	949.16	0.3205	0.0171
49.803	949.17	0.3203	0.0171
49.812	949.18	0.3205	0.0171
49.820	949.18	0.3197	0.0170
49.828	949.19	0.3189	0.0170
49.837	949.19	0.3185	0.0170
49.845	949.20	0.3186	0.0170
49.853	949.21	0.3193	0.0170
49.862	949.21	0.3195	0.0170
49.870	949.22	0.3192	0.0170
49.878	949.22	0.3195	0.0170
49.887	949.23	0.3194	0.0170
49.895	949.23	0.3192	0.0170
49.903	949.24	0.3192	0.0170
49.912	949.25	0.3183	0.0170
49.920	949.25	0.3177	0.0169
49.928	949.26	0.3180	0.0169
49.937	949.26	0.3189	0.0170
49.945	949.27	0.3191	0.0170
49.953	949.27	0.3188	0.0170
49.962	949.28	0.3187	0.0170
49.970	949.28	0.3193	0.0170
49.978	949.29	0.3196	0.0170
49.987	949.29	0.3192	0.0170
49.995	949.30	0.3192	0.0170
50.003	949.31	0.3191	0.0170
50.012	949.31	0.3197	0.0170
50.020	949.32	0.3206	0.0171
50.028	949.32	0.3201	0.0171
50.037	949.33	0.3199	0.0170
50.045	949.33	0.3199	0.0170
50.053	949.34	0.3202	0.0171
50.062	949.34	0.3203	0.0171
50.070	949.35	0.3207	0.0171
50.078	949.35	0.3204	0.0171
50.087	949.36	0.3206	0.0171
50.095	949.36	0.3209	0.0171
50.103	949.37	0.3209	0.0171
50.112	949.37	0.3202	0.0171
50.120	949.38	0.3206	0.0171
50.128	949.38	0.3216	0.0171
50.137	949.38	0.3218	0.0172
50.145	949.39	0.3216	0.0171
50.153	949.39	0.3218	0.0171
50.162	949.40	0.3216	0.0171
50.170	949.40	0.3206	0.0171
50.178	949.41	0.3196	0.0170
50.187	949.41	0.3206	0.0171
50.195	949.42	0.3205	0.0171
50.203	949.42	0.3196	0.0170
50.212	949.43	0.3200	0.0171
50.220	949.43	0.3209	0.0171
50.228	949.43	0.3212	0.0171
50.237	949.44	0.3208	0.0171
50.245	949.44	0.3210	0.0171
50.253	949.45	0.3218	0.0171
50.262	949.45	0.3209	0.0171
50.270	949.45	0.3199	0.0170
50.278	949.46	0.3196	0.0170
50.287	949.46	0.3197	0.0170
50.295	949.47	0.3196	0.0170
50.303	949.47	0.3198	0.0170
50.312	949.47	0.3205	0.0171
50.320	949.48	0.3207	0.0171
50.328	949.48	0.3206	0.0171
50.337	949.49	0.3210	0.0171
50.345	949.49	0.3210	0.0171
50.353	949.49	0.3203	0.0171
50.362	949.50	0.3198	0.0170
50.370	949.50	0.3204	0.0171
50.378	949.50	0.3197	0.0170
50.387	949.51	0.3190	0.0170
50.395	949.51	0.3189	0.0170
50.403	949.52	0.3205	0.0171
50.412	949.52	0.3217	0.0171
50.420	949.52	0.3211	0.0171
50.428	949.53	0.3202	0.0171
50.437	949.53	0.3197	0.0170
50.445	949.53	0.3199	0.0170
50.453	949.54	0.3200	0.0171
50.462	949.54	0.3202	0.0171
50.470	949.54	0.3201	0.0171
50.478	949.55	0.3200	0.0171
50.487	949.55	0.3201	0.0171
50.495	949.55	0.3201	0.0171
50.503	949.56	0.3199	0.0170
50.512	949.56	0.3201	0.0171
50.520	949.56	0.3209	0.0171
50.528	949.57	0.3211	0.0171
50.537	949.57	0.3205	0.0171
50.545	949.57	0.3216	0.0171
50.553	949.57	0.3208	0.0171
50.562	949.58	0.3209	0.0171
50.570	949.58	0.3214	0.0171
50.578	949.58	0.3216	0.0171
50.587	949.59	0.3222	0.0172
50.595	949.59	0.3221	0.0172
50.603	949.59	0.3211	0.0171
50.612	949.60	0.3207	0.0171
50.620	949.60	0.3207	0.0171
50.628	949.60	0.3206	0.0171
50.637	949.60	0.3204	0.0171
50.645	949.61	0.3202	0.0171
50.653	949.61	0.3203	0.0171
50.662	949.61	0.3205	0.0171
50.670	949.62	0.3203	0.0171
50.678	949.62	0.3196	0.0170
50.687	949.62	0.3191	0.0170
50.695	949.62	0.3188	0.0170
50.703	949.63	0.3191	0.0170
50.712	949.63	0.3195	0.0170
50.720	949.63	0.3193	0.0170
50.728	949.63	0.3189	0.0170
50.737	949.64	0.3193	0.0170
50.745	949.64	0.3201	0.0171
50.753	949.64	0.3200	0.0171
50.762	949.65	0.3197	0.0170
50.770	949.65	0.3192	0.0170
50.778	949.65	0.3196	0.0170
50.787	949.65	0.3197	0.0170
50.795	949.66	0.3199	0.0170
50.803	949.66	0.3200	0.0171
50.812	949.66	0.3192	0.0170
50.820	949.66	0.3193	0.0170
50.828	949.67	0.3199	0.0170
50.837	949.67	0.3202	0.0171
50.845	949.67	0.3201	0.0171
50.853	949.67	0.3193	0.0170
50.862	949.68	0.3192	0.0170
50.870	949.68	0.3195	0.0170
50.878	949.68	0.3195	0.0170
50.887	949.68	0.3191	0.0170
50.895	949.68	0.3189	0.0170
50.903	949.69	0.3186	0.0170
50.912	949.69	0.3186	0.0170
50.920	949.69	0.3195	0.0170
50.928	949.69	0.3202	0.0171
50.937	949.70	0.3198	0.0170
50.945	949.70	0.3198	0.0170
50.953	949.70	0.3196	0.0170
50.962	949.70	0.3200	0.0171
50.970	949.71	0.3204	0.0171
50.978	949.71	0.3205	0.0171
50.987	949.71	0.3209	0.0171
50.995	949.71	0.3207	0.0171
51.003	949.71	0.3205	0.0171
51.012	949.72	0.3204	0.0171
51.020	949.72	0.3214	0.0171
51.028	949.72	0.3211	0.0171
51.037	949.72	0.3206	0.0171
51.045	949.73	0.3203	0.0171
51.053	949.73	0.3202	0.0171
51.062	949.73	0.3197	0.0170
51.070	949.73	0.3191	0.0170
51.078	949.73	0.3195	0.0170
51.087	949.74	0.3199	0.0170
51.095	949.74	0.3205	0.0171
51.103	949.74	0.3210	0.0171
51.112	949.74	0.3207	0.0171
51.120	949.74	0.3209	0.0171
51.128	949.75	0.3204	0.0171
51.137	949.75	0.3199	0.0171
51.145	949.75	0.3201	0.0171
51.153	949.75	0.3206	0.0171
51.162	949.75	0.3209	0.0171
51.170	949.76	0.3212	0.0171
51.178	949.76	0.3217	0.0171
51.187	949.76	0.3213	0.0171
51.195	949.76	0.3207	0.0171
51.203	949.76	0.3206	0.0171
51.212	949.77	0.3208	0.0171
51.220	949.77	0.3208	0.0171
51.228	949.77	0.3214	0.0171
51.237	949.77	0.3219	0.0172
51.245	949.77	0.3222	0.0172
51.253	949.77	0.3220	0.0172
51.262	949.77	0.3216	0.0171
51.270	949.78	0.3221	0.0172
51.278	949.78	0.3229	0.0172
51.287	949.78	0.3222	0.0172
51.295	949.78	0.3218	0.0172
51.303	949.78	0.3219	0.0172
51.312	949.78	0.3216	0.0171
51.320	949.79	0.3217	0.0171
51.328	949.79	0.3224	0.0172
51.337	949.79	0.3223	0.0172
51.345	949.79	0.3221	0.0172
51.353	949.79	0.3220	0.0172
51.362	949.79	0.3218	0.0172
51.370	949.80	0.3217	0.0171
51.378	949.80	0.3220	0.0172
51.387	949.80	0.3226	0.0172
51.395	949.80	0.3223	0.0172
51.403	949.80	0.3221	0.0172
51.412	949.80	0.3219	0.0172
51.420	949.80	0.3217	0.0171
51.428	949.81	0.3210	0.0171
51.437	949.81	0.3217	0.0171
51.445	949.81	0.3226	0.0172
51.453	949.81	0.3215	0.0171
51.462	949.81	0.3211	0.0171
51.470	949.81	0.3212	0.0171
51.478	949.81	0.3219	0.0172
51.487	949.82	0.3227	0.0172
51.495	949.82	0.3224	0.0172
51.503	949.82	0.3217	0.0171
51.512	949.82	0.3211	0.0171
51.520	949.82	0.3208	0.0171
51.528	949.82	0.3209	0.0171
51.537	949.82	0.3210	0.0171
51.545	949.83	0.3211	0.0171
51.553	949.83	0.3209	0.0171
51.562	949.83	0.3208	0.0171
51.570	949.83	0.3210	0.0171
51.578	949.83	0.3210	0.0171
51.587	949.83	0.3212	0.0171
51.595	949.83	0.3213	0.0171
51.603	949.84	0.3211	0.0171
51.612	949.84	0.3216	0.0171
51.620	949.84	0.3224	0.0172
51.628	949.84	0.3218	0.0171
51.637	949.84	0.3212	0.0171
51.645	949.84	0.3214	0.0171
51.653	949.84	0.3222	0.0172
51.662	949.84	0.3226	0.0172
51.670	949.85	0.3229	0.0172
51.678	949.85	0.3222	0.0172
51.687	949.85	0.3221	0.0172
51.695	949.85	0.3216	0.0171
51.703	949.85	0.3208	0.0171
51.712	949.85	0.3203	0.0171
51.720	949.85	0.3198	0.0170
51.728	949.85	0.3202	0.0171
51.737	949.86	0.3208	0.0171
51.745	949.86	0.3214	0.0171
51.753	949.86	0.3210	0.0171
51.762	949.86	0.3202	0.0171
51.770	949.86	0.3202	0.0171
51.778	949.86	0.3204	0.0171
51.787	949.86	0.3206	0.0171
51.795	949.86	0.3207	0.0171
51.803	949.86	0.3197	0.0170
51.812	949.86	0.3200	0.0171
51.820	949.87	0.3210	0.0171
51.828	949.87	0.3213	0.0171
51.837	949.87	0.3216	0.0171
51.845	949.87	0.3209	0.0171
51.853	949.87	0.3194	0.0170
51.862	949.87	0.3188	0.0170
51.870	949.87	0.3188	0.0170
51.878	949.87	0.3186	0.0170
51.887	949.87	0.3188	0.0170
51.895	949.87	0.3188	0.0170
51.903	949.88	0.3191	0.0170
51.912	949.88	0.3194	0.0170
51.920	949.88	0.3196	0.0170
51.928	949.88	0.3193	0.0170
51.937	949.88	0.3196	0.0170
51.945	949.88	0.3206	0.0171
51.953	949.88	0.3201	0.0171
51.962	949.88	0.3196	0.0170
51.970	949.88	0.3204	0.0171
51.978	949.88	0.3210	0.0171
51.987	949.89	0.3203	0.0171
51.995	949.89	0.3201	0.0171
52.003	949.89	0.3201	0.0171
52.012	949.89	0.3198	0.0170
52.020	949.89	0.3201	0.0171
52.028	949.89	0.3202	0.0171
52.037	949.89	0.3199	0.0170
52.045	949.89	0.3204	0.0171
52.053	949.89	0.3218	0.0171
52.062	949.89	0.3221	0.0172
52.070	949.89	0.3212	0.0171
52.078	949.89	0.3203	0.0171
52.087	949.90	0.3205	0.0171
52.095	949.90	0.3208	0.0171
52.103	949.90	0.3207	0.0171
52.112	949.90	0.3225	0.0172
52.120	949.90	0.3232	0.0172
52.128	949.90	0.3223	0.0172
52.137	949.90	0.3226	0.0172
52.145	949.90	0.3220	0.0172
52.153	949.90	0.3216	0.0171
52.162	949.90	0.3219	0.0172
52.170	949.90	0.3220	0.0172
52.178	949.90	0.3229	0.0172
52.187	949.90	0.3228	0.0172
52.195	949.91	0.3217	0.0171
52.203	949.91	0.3210	0.0171
52.212	949.91	0.3213	0.0171
52.220	949.91	0.3224	0.0172
52.228	949.91	0.3228	0.0172
52.237	949.91	0.3232	0.0172
52.245	949.91	0.3233	0.0172
52.253	949.91	0.3226	0.0172
52.262	949.91	0.3217	0.0171
52.270	949.91	0.3220	0.0172
52.278	949.91	0.3222	0.0172
52.287	949.91	0.3219	0.0172
52.295	949.91	0.3232	0.0172
52.303	949.91	0.3237	0.0173
52.312	949.91	0.3232	0.0172
52.320	949.91	0.3227	0.0172
52.328	949.91	0.3211	0.0171
52.337	949.91	0.3206	0.0171
52.345	949.92	0.3225	0.0172
52.353	949.92	0.3226	0.0172
52.362	949.92	0.3214	0.0171
52.370	949.92	0.3212	0.0171
52.378	949.92	0.3211	0.0171
52.387	949.92	0.3207	0.0171
52.395	949.92	0.3203	0.0171
52.403	949.92	0.3205	0.0171
52.412	949.92	0.3209	0.0171
52.420	949.92	0.3211	0.0171
52.428	949.92	0.3207	0.0171
52.437	949.92	0.3206	0.0171
52.445	949.92	0.3206	0.0171
52.453	949.92	0.3209	0.0171
52.462	949.92	0.3213	0.0171
52.470	949.92	0.3214	0.0171
52.478	949.92	0.3211	0.0171
52.487	949.92	0.3205	0.0171
52.495	949.92	0.3201	0.0171
52.503	949.93	0.3201	0.0171
52.512	949.93	0.3203	0.0171
52.520	949.93	0.3200	0.0171
52.528	949.93	0.3198	0.0170
52.537	949.93	0.3204	0.0171
52.545	949.93	0.3205	0.0171
52.553	949.93	0.3199	0.0170
52.562	949.93	0.3201	0.0171
52.570	949.93	0.3205	0.0171
52.578	949.93	0.3202	0.0171
52.587	949.93	0.3195	0.0170
52.595	949.93	0.3192	0.0170
52.603	949.93	0.3203	0.0171
52.612	949.93	0.3204	0.0171
52.620	949.93	0.3197	0.0170
52.628	949.93	0.3202	0.0171
52.637	949.93	0.3199	0.0170
52.645	949.94	0.3199	0.0170
52.653	949.94	0.3199	0.0170
52.662	949.94	0.3200	0.0171
52.670	949.94	0.3212	0.0171
52.678	949.94	0.3207	0.0171
52.687	949.94	0.3203	0.0171
52.695	949.94	0.3206	0.0171
52.703	949.94	0.3207	0.0171
52.712	949.94	0.3206	0.0171
52.720	949.94	0.3205	0.0171
52.728	949.94	0.3213	0.0171
52.737	949.94	0.3206	0.0171
52.745	949.94	0.3201	0.0171
52.753	949.94	0.3201	0.0171
52.762	949.94	0.3198	0.0170
52.770	949.94	0.3200	0.0171
52.778	949.94	0.3205	0.0171
52.787	949.94	0.3206	0.0171
52.795	949.94	0.3209	0.0171
52.803	949.94	0.3211	0.0171
52.812	949.95	0.3208	0.0171
52.820	949.95	0.3210	0.0171
52.828	949.95	0.3210	0.0171
52.837	949.95	0.3204	0.0171
52.845	949.95	0.3203	0.0171
52.853	949.95	0.3200	0.0171
52.862	949.95	0.3196	0.0170
52.870	949.95	0.3198	0.0170
52.878	949.95	0.3201	0.0171
52.887	949.95	0.3206	0.0171
52.895	949.95	0.3221	0.0172
52.903	949.95	0.3229	0.0172
52.912	949.95	0.3223	0.0172
52.920	949.95	0.3229	0.0172
52.928	949.95	0.3227	0.0172
52.937	949.95	0.3220	0.0172
52.945	949.95	0.3216	0.0171
52.953	949.95	0.3212	0.0171
52.962	949.95	0.3215	0.0171
52.970	949.95	0.3216	0.0171
52.978	949.95	0.3216	0.0171
52.987	949.95	0.3220	0.0172
52.995	949.95	0.3222	0.0172
53.003	949.95	0.3221	0.0172
53.012	949.96	0.3219	0.0172
53.020	949.96	0.3219	0.0172
53.028	949.96	0.3222	0.0172
53.037	949.96	0.3223	0.0172
53.045	949.96	0.3220	0.0172
53.053	949.96	0.3222	0.0172
53.062	949.96	0.3228	0.0172
53.070	949.96	0.3228	0.0172
53.078	949.96	0.3235	0.0172
53.087	949.96	0.3228	0.0172
53.095	949.96	0.3231	0.0172
53.103	949.96	0.3221	0.0172
53.112	949.96	0.3218	0.0172
53.120	949.96	0.3220	0.0172
53.128	949.96	0.3215	0.0171
53.137	949.96	0.3216	0.0171
53.145	949.96	0.3227	0.0172
53.153	949.96	0.3220	0.0172
53.162	949.96	0.3220	0.0172
53.170	949.96	0.3226	0.0172
53.178	949.96	0.3234	0.0172
53.187	949.96	0.3234	0.0172
53.195	949.96	0.3223	0.0172
53.203	949.96	0.3216	0.0171
53.212	949.96	0.3214	0.0171
53.220	949.96	0.3215	0.0171
53.228	949.96	0.3214	0.0171
53.237	949.96	0.3211	0.0171
53.245	949.96	0.3210	0.0171
53.253	949.96	0.3217	0.0171
53.262	949.96	0.3223	0.0172
53.270	949.97	0.3226	0.0172
53.278	949.97	0.3224	0.0172
53.287	949.97	0.3218	0.0171
53.295	949.97	0.3215	0.0171
53.303	949.97	0.3218	0.0172
53.312	949.97	0.3216	0.0171
53.320	949.97	0.3218	0.0172
53.328	949.97	0.3217	0.0171
53.337	949.97	0.3214	0.0171
53.345	949.97	0.3211	0.0171
53.353	949.97	0.3208	0.0171
53.362	949.97	0.3203	0.0171
53.370	949.97	0.3204	0.0171
53.378	949.97	0.3205	0.0171
53.387	949.97	0.3206	0.0171
53.395	949.97	0.3211	0.0171
53.403	949.97	0.3213	0.0171
53.412	949.97	0.3214	0.0171
53.420	949.97	0.3219	0.0172
53.428	949.97	0.3223	0.0172
53.437	949.97	0.3228	0.0172
53.445	949.97	0.3238	0.0173
53.453	949.97	0.3230	0.0172
53.462	949.97	0.3219	0.0172
53.470	949.97	0.3212	0.0171
53.478	949.97	0.3221	0.0172
53.487	949.97	0.3221	0.0172
53.495	949.97	0.3223	0.0172
53.503	949.97	0.3221	0.0172
53.512	949.97	0.3219	0.0172
53.520	949.97	0.3218	0.0171
53.528	949.97	0.3225	0.0172
53.537	949.97	0.3226	0.0172
53.545	949.97	0.3222	0.0172
53.553	949.97	0.3223	0.0172
53.562	949.97	0.3218	0.0172
53.570	949.97	0.3215	0.0171
53.578	949.97	0.3212	0.0171
53.587	949.97	0.3210	0.0171
53.595	949.97	0.3210	0.0171
53.603	949.97	0.3211	0.0171
53.612	949.97	0.3213	0.0171
53.620	949.97	0.3214	0.0171
53.628	949.97	0.3219	0.0172
53.637	949.97	0.3226	0.0172
53.645	949.98	0.3218	0.0171
53.653	949.98	0.3216	0.0171
53.662	949.98	0.3223	0.0172
53.670	949.98	0.3219	0.0172
53.678	949.98	0.3215	0.0171
53.687	949.98	0.3212	0.0171
53.695	949.98	0.3210	0.0171
53.703	949.98	0.3210	0.0171
53.712	949.98	0.3213	0.0171
53.720	949.98	0.3216	0.0171
53.728	949.98	0.3219	0.0172
53.737	949.98	0.3224	0.0172
53.745	949.98	0.3222	0.0172
53.753	949.98	0.3217	0.0171
53.762	949.98	0.3224	0.0172
53.770	949.98	0.3222	0.0172
53.778	949.98	0.3216	0.0171
53.787	949.98	0.3209	0.0171
53.795	949.98	0.3208	0.0171
53.803	949.98	0.3206	0.0171
53.812	949.98	0.3206	0.0171
53.820	949.98	0.3220	0.0172
53.828	949.98	0.3222	0.0172
53.837	949.98	0.3217	0.0171
53.845	949.98	0.3221	0.0172
53.853	949.98	0.3222	0.0172
53.862	949.98	0.3213	0.0171
53.870	949.98	0.3206	0.0171
53.878	949.98	0.3204	0.0171
53.887	949.98	0.3204	0.0171
53.895	949.98	0.3203	0.0171
53.903	949.98	0.3207	0.0171
53.912	949.98	0.3217	0.0171
53.920	949.98	0.3219	0.0172
53.928	949.98	0.3210	0.0171
53.937	949.98	0.3204	0.0171
53.945	949.98	0.3210	0.0171
53.953	949.98	0.3209	0.0171
53.962	949.98	0.3211	0.0171
53.970	949.98	0.3217	0.0171
53.978	949.98	0.3212	0.0171
53.987	949.98	0.3212	0.0171
53.995	949.98	0.3217	0.0171
54.003	949.98	0.3218	0.0171
54.012	949.98	0.3217	0.0171
54.020	949.98	0.3215	0.0171
54.028	949.98	0.3212	0.0171
54.037	949.98	0.3211	0.0171
54.045	949.98	0.3209	0.0171
54.053	949.98	0.3207	0.0171
54.062	949.98	0.3205	0.0171
54.070	949.98	0.3211	0.0171
54.078	949.98	0.3217	0.0171
54.087	949.98	0.3213	0.0171
54.095	949.98	0.3208	0.0171
54.103	949.98	0.3209	0.0171
54.112	949.98	0.3214	0.0171
54.120	949.98	0.3213	0.0171
54.128	949.98	0.3210	0.0171
54.137	949.98	0.3207	0.0171
54.145	949.98	0.3203	0.0171
54.153	949.98	0.3198	0.0170
54.162	949.98	0.3197	0.0170
54.170	949.98	0.3202	0.0171
54.178	949.98	0.3207	0.0171
54.187	949.98	0.3200	0.0171
54.195	949.98	0.3197	0.0170
54.203	949.98	0.3203	0.0171
54.212	949.98	0.3203	0.0171
54.220	949.98	0.3204	0.0171
54.228	949.98	0.3212	0.0171
54.237	949.99	0.3217	0.0171
54.245	949.99	0.3210	0.0171
54.253	949.99	0.3208	0.0171
54.262	949.99	0.3208	0.0171
54.270	949.99	0.3215	0.0171
54.278	949.99	0.3220	0.0172
54.287	949.99	0.3224	0.0172
54.295	949.99	0.3220	0.0172
54.303	949.99	0.3208	0.0171
54.312	949.99	0.3204	0.0171
54.320	949.99	0.3213	0.0171
54.328	949.99	0.3216	0.0171
54.337	949.99	0.3215	0.0171
54.345	949.99	0.3209	0.0171
54.353	949.99	0.3202	0.0171
54.362	949.99	0.3204	0.0171
54.370	949.99	0.3205	0.0171
54.378	949.99	0.3206	0.0171
54.387	949.99	0.3207	0.0171
54.395	949.99	0.3219	0.0172
54.403	949.99	0.3216	0.0171
54.412	949.99	0.3212	0.0171
54.420	949.99	0.3212	0.0171
54.428	949.99	0.3207	0.0171
54.437	949.99	0.3206	0.0171
54.445	949.99	0.3207	0.0171
54.453	949.99	0.3204	0.0171
54.462	949.99	0.3204	0.0171
54.470	949.99	0.3209	0.0171
54.478	949.99	0.3211	0.0171
54.487	949.99	0.3220	0.0172
54.495	949.99	0.3228	0.0172
54.503	949.99	0.3222	0.0172
54.512	949.99	0.3220	0.0172
54.520	949.99	0.3220	0.0172
54.528	949.99	0.3214	0.0171
54.537	949.99	0.3212	0.0171
54.545	949.99	0.3233	0.0172
54.553	949.99	0.3234	0.0172
54.562	949.99	0.3223	0.0172
54.570	949.99	0.3227	0.0172
54.578	949.99	0.3220	0.0172
54.587	949.99	0.3221	0.0172
54.595	949.99	0.3226	0.0172
54.603	949.99	0.3220	0.0172
54.612	949.99	0.3212	0.0171
54.620	949.99	0.3208	0.0171
54.628	949.99	0.3202	0.0171
54.637	949.99	0.3201	0.0171
54.645	949.99	0.3203	0.0171
54.653	949.99	0.3200	0.0171
54.662	949.99	0.3197	0.0170
54.670	949.99	0.3199	0.0170
54.678	949.99	0.3204	0.0171
54.687	949.99	0.3200	0.0171
54.695	949.99	0.3200	0.0171
54.703	949.99	0.3209	0.0171
54.712	949.99	0.3217	0.0171
54.720	949.99	0.3216	0.0171
54.728	949.99	0.3215	0.0171
54.737	949.99	0.3211	0.0171
54.745	949.99	0.3203	0.0171
54.753	950.00	0.3206	0.0171
54.762	950.00	0.3207	0.0171
54.770	950.00	0.3206	0.0171
54.778	950.00	0.3206	0.0171
54.787	950.00	0.3205	0.0171
54.795	950.00	0.3202	0.0171
54.803	950.00	0.3207	0.0171
54.812	950.00	0.3207	0.0171
54.820	950.00	0.3201	0.0171
54.828	950.00	0.3195	0.0170
54.837	950.00	0.3192	0.0170
54.845	950.00	0.3191	0.0170
54.853	950.00	0.3193	0.0170
54.862	950.00	0.3196	0.0170
54.870	950.00	0.3203	0.0171
54.878	950.00	0.3211	0.0171
54.887	950.00	0.3213	0.0171
54.895	950.00	0.3214	0.0171
54.903	950.00	0.3214	0.0171
54.912	950.00	0.3219	0.0172
54.920	950.00	0.3216	0.0171
54.928	950.00	0.3206	0.0171
54.937	950.00	0.3211	0.0171
54.945	950.00	0.3213	0.0171
54.953	950.00	0.3216	0.0171
54.962	950.00	0.3216	0.0171
54.970	950.00	0.3213	0.0171
54.978	950.00	0.3211	0.0171
54.987	950.00	0.3208	0.0171
54.995	950.00	0.3212	0.0171
55.003	950.00	0.3216	0.0171
55.012	950.00	0.3211	0.0171
55.020	950.00	0.3212	0.0171
55.028	950.00	0.3212	0.0171
55.037	950.00	0.3208	0.0171
55.045	950.00	0.3207	0.0171
55.053	950.00	0.3209	0.0171
55.062	950.00	0.3207	0.0171
55.070	950.00	0.3199	0.0170
55.078	950.00	0.3200	0.0171
55.087	950.00	0.3205	0.0171
55.095	950.00	0.3203	0.0171
55.103	950.00	0.3203	0.0171
55.112	950.00	0.3200	0.0171
55.120	950.00	0.3199	0.0170
55.128	950.00	0.3200	0.0171
55.137	950.00	0.3204	0.0171
55.145	950.00	0.3204	0.0171
55.153	950.00	0.3204	0.0171
55.162	950.00	0.3208	0.0171
55.170	950.00	0.3216	0.0171
55.178	950.00	0.3216	0.0171
55.187	950.00	0.3221	0.0172
55.195	950.00	0.3217	0.0171
55.203	950.00	0.3213	0.0171
55.212	950.00	0.3219	0.0172
55.220	950.00	0.3229	0.0172
55.228	950.00	0.3224	0.0172
55.237	950.00	0.3219	0.0172
55.245	950.00	0.3218	0.0171
55.253	950.00	0.3218	0.0171
55.262	950.00	0.3221	0.0172
55.270	950.00	0.3217	0.0171
55.278	950.00	0.3206	0.0171
55.287	950.00	0.3200	0.0171
55.295	950.00	0.3201	0.0171
55.303	950.00	0.3205	0.0171
55.312	950.00	0.3208	0.0171
55.320	950.00	0.3203	0.0171
55.328	950.00	0.3199	0.0170
55.337	950.00	0.3197	0.0170
55.345	950.00	0.3205	0.0171
55.353	950.00	0.3211	0.0171
55.362	950.00	0.3214	0.0171
55.370	950.00	0.3213	0.0171
55.378	950.00	0.3208	0.0171
55.387	950.00	0.3205	0.0171
55.395	950.00	0.3211	0.0171
55.403	950.00	0.3211	0.0171
55.412	950.00	0.3214	0.0171
55.420	950.00	0.3214	0.0171
55.428	950.00	0.3204	0.0171
55.437	950.00	0.3207	0.0171
55.445	950.00	0.3209	0.0171
55.453	950.00	0.3207	0.0171
55.462	950.00	0.3209	0.0171
55.470	950.00	0.3215	0.0171
55.478	950.00	0.3214	0.0171
55.487	950.00	0.3213	0.0171
55.495	950.00	0.3217	0.0171
55.503	950.00	0.3229	0.0172
55.512	950.00	0.3239	0.0173
55.520	950.00	0.3229	0.0172
55.528	950.00	0.3223	0.0172
55.537	950.00	0.3222	0.0172
55.545	950.00	0.3218	0.0171
55.553	950.00	0.3215	0.0171
55.562	950.00	0.3218	0.0171
55.570	950.00	0.3215	0.0171
55.578	950.00	0.3212	0.0171
55.587	950.00	0.3220	0.0172
55.595	950.00	0.3226	0.0172
55.603	950.00	0.3221	0.0172
55.612	950.00	0.3218	0.0171
55.620	950.00	0.3215	0.0171
55.628	950.00	0.3216	0.0171
55.637	950.00	0.3214	0.0171
55.645	950.00	0.3211	0.0171
55.653	950.00	0.3206	0.0171
55.662	950.00	0.3213	0.0171
55.670	950.00	0.3219	0.0172
55.678	950.00	0.3218	0.0172
55.687	950.00	0.3219	0.0172
55.695	950.00	0.3215	0.0171
55.703	950.00	0.3209	0.0171
55.712	950.00	0.3205	0.0171
55.720	950.00	0.3204	0.0171
55.728	950.00	0.3205	0.0171
55.737	950.00	0.3205	0.0171
55.745	950.00	0.3213	0.0171
55.753	950.00	0.3215	0.0171
55.762	950.00	0.3211	0.0171
55.770	950.00	0.3211	0.0171
55.778	950.00	0.3210	0.0171
55.787	950.00	0.3208	0.0171
55.795	950.00	0.3205	0.0171
55.803	950.00	0.3202	0.0171
55.812	950.00	0.3205	0.0171
55.820	950.00	0.3204	0.0171
55.828	950.00	0.3205	0.0171
55.837	950.00	0.3203	0.0171
55.845	950.00	0.3205	0.0171
55.853	950.00	0.3205	0.0171
55.862	950.00	0.3201	0.0171
55.870	950.00	0.3209	0.0171
55.878	950.00	0.3225	0.0172
55.887	950.00	0.3229	0.0172
55.895	950.00	0.3220	0.0172
55.903	950.00	0.3218	0.0171
55.912	950.00	0.3215	0.0171
55.920	950.00	0.3213	0.0171
55.928	950.00	0.3214	0.0171
55.937	950.00	0.3211	0.0171
55.945	950.00	0.3207	0.0171
55.953	950.00	0.3214	0.0171
55.962	950.00	0.3219	0.0172
55.970	950.00	0.3215	0.0171
55.978	950.00	0.3212	0.0171
55.987	950.00	0.3208	0.0171
55.995	950.00	0.3209	0.0171
56.003	950.00	0.3209	0.0171
56.012	950.00	0.3212	0.0171
56.020	950.00	0.3219	0.0172
56.028	950.00	0.3219	0.0172
56.037	950.00	0.3210	0.0171
56.045	950.00	0.3205	0.0171
56.053	950.00	0.3207	0.0171
56.062	950.00	0.3215	0.0171
56.070	950.00	0.3216	0.0171
56.078	950.00	0.3209	0.0171
56.087	950.00	0.3208	0.0171
56.095	950.00	0.3208	0.0171
56.103	950.00	0.3203	0.0171
56.112	950.00	0.3199	0.0170
56.120	950.00	0.3198	0.0170
56.128	950.00	0.3203	0.0171
56.137	950.00	0.3209	0.0171
56.145	950.00	0.3208	0.0171
56.153	950.00	0.3200	0.0171
56.162	950.00	0.3193	0.0170
56.170	950.00	0.3193	0.0170
56.178	950.00	0.3195	0.0170
56.187	950.00	0.3199	0.0170
56.195	950.00	0.3201	0.0171
56.203	950.00	0.3202	0.0171
56.212	950.00	0.3202	0.0171
56.220	950.00	0.3201	0.0171
56.228	950.00	0.3201	0.0171
56.237	950.00	0.3201	0.0171
56.245	950.00	0.3197	0.0170
56.253	950.00	0.3195	0.0170
56.262	950.00	0.3196	0.0170
56.270	950.00	0.3205	0.0171
56.278	950.00	0.3213	0.0171
56.287	950.00	0.3211	0.0171
56.295	950.00	0.3207	0.0171
56.303	950.00	0.3206	0.0171
56.312	950.00	0.3202	0.0171
56.320	950.00	0.3201	0.0171
56.328	950.00	0.3204	0.0171
56.337	950.00	0.3208	0.0171
56.345	950.00	0.3207	0.0171
56.353	950.00	0.3204	0.0171
56.362	950.00	0.3204	0.0171
56.370	950.00	0.3207	0.0171
56.378	950.00	0.3210	0.0171
56.387	950.00	0.3218	0.0171
56.395	950.00	0.3218	0.0171
56.403	950.00	0.3212	0.0171
56.412	950.00	0.3215	0.0171
56.420	950.00	0.3222	0.0172
56.428	950.00	0.3216	0.0171
56.437	950.00	0.3216	0.0171
56.445	950.00	0.3218	0.0172
56.453	950.00	0.3214	0.0171
56.462	950.00	0.3211	0.0171
56.470	950.00	0.3214	0.0171
56.478	950.00	0.3214	0.0171
56.487	950.00	0.3215	0.0171
56.495	950.00	0.3217	0.0171
56.503	950.00	0.3221	0.0172
56.512	950.00	0.3218	0.0171
56.520	950.00	0.3212	0.0171
56.528	950.00	0.3206	0.0171
56.537	950.00	0.3206	0.0171
56.545	950.00	0.3206	0.0171
56.553	950.00	0.3205	0.0171
56.562	950.00	0.3204	0.0171
56.570	950.00	0.3202	0.0171
56.578	950.00	0.3205	0.0171
56.587	950.00	0.3210	0.0171
56.595	950.00	0.3209	0.0171
56.603	950.00	0.3211	0.0171
56.612	950.00	0.3211	0.0171
56.620	950.00	0.3211	0.0171
56.628	950.00	0.3217	0.0171
56.637	950.00	0.3224	0.0172
56.645	950.00	0.3221	0.0172
56.653	950.00	0.3222	0.0172
56.662	950.00	0.3220	0.0172
56.670	950.00	0.3214	0.0171
56.678	950.00	0.3213	0.0171
56.687	950.00	0.3213	0.0171
56.695	950.00	0.3211	0.0171
56.703	950.00	0.3208	0.0171
56.712	950.00	0.3214	0.0171
56.720	950.00	0.3224	0.0172
56.728	950.00	0.3220	0.0172
56.737	950.00	0.3212	0.0171
56.745	950.00	0.3215	0.0171
56.753	950.00	0.3213	0.0171
56.762	950.00	0.3218	0.0172
56.770	950.00	0.3226	0.0172
56.778	950.00	0.3229	0.0172
56.787	950.00	0.3238	0.0173
56.795	950.00	0.3237	0.0173
56.803	950.00	0.3222	0.0172
56.812	950.00	0.3221	0.0172
56.820	950.00	0.3217	0.0171
56.828	950.00	0.3219	0.0172
56.837	950.00	0.3220	0.0172
56.845	950.00	0.3217	0.0171
56.853	950.00	0.3215	0.0171
56.862	950.00	0.3210	0.0171
56.870	950.00	0.3209	0.0171
56.878	950.00	0.3209	0.0171
56.887	950.00	0.3215	0.0171
56.895	950.00	0.3218	0.0172
56.903	950.00	0.3212	0.0171
56.912	950.00	0.3211	0.0171
56.920	950.00	0.3214	0.0171
56.928	950.00	0.3216	0.0171
56.937	950.00	0.3218	0.0171
56.945	950.00	0.3215	0.0171
56.953	950.00	0.3216	0.0171
56.962	950.00	0.3227	0.0172
56.970	950.00	0.3231	0.0172
56.978	950.00	0.3225	0.0172
56.987	950.00	0.3217	0.0171
56.995	950.00	0.3221	0.0172
57.003	950.00	0.3225	0.0172
57.012	950.00	0.3228	0.0172
57.020	950.00	0.3227	0.0172
57.028	950.00	0.3227	0.0172
57.037	950.00	0.3215	0.0171
57.045	950.00	0.3207	0.0171
57.053	950.00	0.3215	0.0171
57.062	950.00	0.3220	0.0172
57.070	950.00	0.3217	0.0171
57.078	950.00	0.3214	0.0171
57.087	950.00	0.3212	0.0171
57.095	950.00	0.3212	0.0171
57.103	950.00	0.3212	0.0171
57.112	950.00	0.3208	0.0171
57.120	950.00	0.3208	0.0171
57.128	950.00	0.3208	0.0171
57.137	950.00	0.3209	0.0171
57.145	950.00	0.3211	0.0171
57.153	950.00	0.3214	0.0171
57.162	950.00	0.3214	0.0171
57.170	950.00	0.3210	0.0171
57.178	950.00	0.3206	0.0171
57.187	950.00	0.3209	0.0171
57.195	950.00	0.3214	0.0171
57.203	950.00	0.3213	0.0171
57.212	950.00	0.3215	0.0171
57.220	950.00	0.3221	0.0172
57.228	950.00	0.3224	0.0172
57.237	950.00	0.3220	0.0172
57.245	950.00	0.3216	0.0171
57.253	950.00	0.3215	0.0171
57.262	950.00	0.3217	0.0171
57.270	950.00	0.3227	0.0172
57.278	950.00	0.3224	0.0172
57.287	950.00	0.3223	0.0172
57.295	950.00	0.3221	0.0172
57.303	950.00	0.3217	0.0171
57.312	950.00	0.3214	0.0171
57.320	950.00	0.3215	0.0171

